"sep=	"
Shimmer_Timestamp	Shimmer_EMG_ENV	Shimmer_EMG_RAW	Shimmer_EMG_REF
hh:mm:ss	unit	unit	unit
14:56:05	298.0000	418.0000	0
14:56:05	298.0000	390.0000	0
14:56:05	289.0000	368.0000	0
14:56:05	289.0000	362.0000	0
14:56:05	285.0000	338.0000	0
14:56:05	295.0000	330.0000	0
14:56:05	304.0000	314.0000	0
14:56:05	301.0000	413.0000	0
14:56:05	294.0000	389.0000	0
14:56:05	288.0000	368.0000	0
14:56:05	299.0000	358.0000	0
14:56:05	291.0000	338.0000	0
14:56:05	306.0000	323.0000	0
14:56:05	297.0000	417.0000	0
14:56:05	295.0000	390.0000	0
14:56:05	287.0000	378.0000	0
14:56:05	283.0000	342.0000	0
14:56:05	294.0000	347.0000	0
14:56:05	302.0000	335.0000	0
14:56:05	301.0000	419.0000	0
14:56:05	293.0000	391.0000	0
14:56:05	291.0000	369.0000	0
14:56:05	290.0000	362.0000	0
14:56:05	296.0000	339.0000	0
14:56:05	309.0000	336.0000	0
14:56:05	299.0000	417.0000	0
14:56:05	292.0000	389.0000	0
14:56:05	289.0000	368.0000	0
14:56:05	299.0000	350.0000	0
14:56:05	285.0000	337.0000	0
14:56:06	300.0000	330.0000	0
14:56:06	296.0000	417.0000	0
14:56:06	294.0000	387.0000	0
14:56:06	288.0000	371.0000	0
14:56:06	286.0000	351.0000	0
14:56:06	284.0000	337.0000	0
14:56:06	297.0000	326.0000	0
14:56:06	299.0000	418.0000	0
14:56:06	298.0000	387.0000	0
14:56:06	291.0000	368.0000	0
14:56:06	289.0000	351.0000	0
14:56:06	286.0000	338.0000	0
14:56:06	291.0000	326.0000	0
14:56:06	297.0000	423.0000	0
14:56:06	290.0000	384.0000	0
14:56:06	294.0000	377.0000	0
14:56:06	283.0000	351.0000	0
14:56:06	283.0000	334.0000	0
14:56:06	283.0000	335.0000	0
14:56:06	297.0000	321.0000	0
14:56:06	294.0000	420.0000	0
14:56:06	285.0000	379.0000	0
14:56:06	286.0000	368.0000	0
14:56:06	280.0000	350.0000	0
14:56:06	273.0000	330.0000	0
14:56:06	292.0000	320.0000	0
14:56:06	293.0000	414.0000	0
14:56:06	291.0000	390.0000	0
14:56:06	286.0000	362.0000	0
14:56:06	286.0000	352.0000	0
14:56:06	285.0000	337.0000	0
14:56:06	299.0000	329.0000	0
14:56:06	304.0000	427.0000	0
14:56:06	303.0000	397.0000	0
14:56:06	298.0000	368.0000	0
14:56:06	295.0000	352.0000	0
14:56:06	294.0000	337.0000	0
14:56:06	303.0000	331.0000	0
14:56:06	314.0000	326.0000	0
14:56:06	304.0000	418.0000	0
14:56:06	294.0000	390.0000	0
14:56:06	295.0000	359.0000	0
14:56:06	288.0000	362.0000	0
14:56:06	289.0000	338.0000	0
14:56:06	304.0000	330.0000	0
14:56:06	297.0000	419.0000	0
14:56:06	303.0000	400.0000	0
14:56:06	290.0000	370.0000	0
14:56:06	289.0000	346.0000	0
14:56:06	289.0000	349.0000	0
14:56:06	301.0000	330.0000	0
14:56:06	298.0000	419.0000	0
14:56:06	291.0000	391.0000	0
14:56:06	290.0000	375.0000	0
14:56:06	288.0000	355.0000	0
14:56:06	278.0000	334.0000	0
14:56:06	309.0000	334.0000	0
14:56:06	307.0000	321.0000	0
14:56:06	299.0000	415.0000	0
14:56:06	298.0000	384.0000	0
14:56:06	293.0000	368.0000	0
14:56:06	290.0000	352.0000	0
14:56:06	293.0000	334.0000	0
14:56:06	311.0000	335.0000	0
14:56:06	296.0000	417.0000	0
14:56:06	295.0000	394.0000	0
14:56:06	290.0000	365.0000	0
14:56:06	295.0000	352.0000	0
14:56:06	304.0000	341.0000	0
14:56:06	311.0000	326.0000	0
14:56:06	306.0000	427.0000	0
14:56:06	301.0000	391.0000	0
14:56:06	297.0000	370.0000	0
14:56:06	293.0000	353.0000	0
14:56:06	294.0000	341.0000	0
14:56:06	314.0000	335.0000	0
14:56:06	319.0000	324.0000	0
14:56:06	302.0000	415.0000	0
14:56:06	300.0000	384.0000	0
14:56:06	285.0000	362.0000	0
14:56:06	299.0000	355.0000	0
14:56:06	307.0000	338.0000	0
14:56:06	315.0000	335.0000	0
14:56:06	297.0000	415.0000	0
14:56:06	298.0000	399.0000	0
14:56:06	293.0000	369.0000	0
14:56:06	282.0000	347.0000	0
14:56:06	316.0000	342.0000	0
14:56:06	316.0000	334.0000	0
14:56:06	303.0000	419.0000	0
14:56:06	298.0000	391.0000	0
14:56:06	298.0000	378.0000	0
14:56:06	288.0000	355.0000	0
14:56:06	290.0000	336.0000	0
14:56:06	317.0000	336.0000	0
14:56:06	297.0000	418.0000	0
14:56:06	291.0000	387.0000	0
14:56:06	292.0000	369.0000	0
14:56:06	293.0000	361.0000	0
14:56:06	299.0000	341.0000	0
14:56:06	299.0000	323.0000	0
14:56:06	314.0000	326.0000	0
14:56:06	298.0000	416.0000	0
14:56:06	294.0000	392.0000	0
14:56:06	289.0000	368.0000	0
14:56:06	298.0000	354.0000	0
14:56:06	307.0000	340.0000	0
14:56:06	307.0000	324.0000	0
14:56:06	307.0000	429.0000	0
14:56:06	300.0000	393.0000	0
14:56:06	299.0000	370.0000	0
14:56:06	304.0000	355.0000	0
14:56:06	307.0000	342.0000	0
14:56:06	320.0000	336.0000	0
14:56:06	304.0000	413.0000	0
14:56:06	304.0000	400.0000	0
14:56:06	303.0000	371.0000	0
14:56:06	306.0000	358.0000	0
14:56:06	311.0000	343.0000	0
14:56:06	319.0000	335.0000	0
14:56:06	315.0000	329.0000	0
14:56:06	304.0000	419.0000	0
14:56:06	305.0000	400.0000	0
14:56:06	303.0000	370.0000	0
14:56:06	304.0000	346.0000	0
14:56:06	321.0000	346.0000	0
14:56:06	322.0000	335.0000	0
14:56:06	310.0000	423.0000	0
14:56:06	307.0000	400.0000	0
14:56:06	307.0000	381.0000	0
14:56:06	314.0000	357.0000	0
14:56:06	322.0000	349.0000	0
14:56:06	324.0000	335.0000	0
14:56:06	303.0000	423.0000	0
14:56:06	301.0000	395.0000	0
14:56:06	298.0000	373.0000	0
14:56:06	305.0000	368.0000	0
14:56:06	319.0000	345.0000	0
14:56:06	321.0000	336.0000	0
14:56:06	299.0000	418.0000	0
14:56:06	298.0000	394.0000	0
14:56:06	298.0000	379.0000	0
14:56:06	293.0000	350.0000	0
14:56:06	308.0000	342.0000	0
14:56:06	314.0000	334.0000	0
14:56:06	304.0000	317.0000	0
14:56:06	304.0000	427.0000	0
14:56:06	292.0000	391.0000	0
14:56:06	294.0000	369.0000	0
14:56:06	308.0000	360.0000	0
14:56:06	314.0000	343.0000	0
14:56:06	319.0000	336.0000	0
14:56:06	304.0000	420.0000	0
14:56:06	302.0000	401.0000	0
14:56:06	299.0000	370.0000	0
14:56:06	311.0000	367.0000	0
14:56:06	320.0000	336.0000	0
14:56:06	325.0000	341.0000	0
14:56:06	311.0000	426.0000	0
14:56:06	299.0000	385.0000	0
14:56:06	306.0000	380.0000	0
14:56:06	305.0000	358.0000	0
14:56:06	318.0000	344.0000	0
14:56:06	320.0000	334.0000	0
14:56:06	304.0000	419.0000	0
14:56:06	302.0000	390.0000	0
14:56:06	299.0000	370.0000	0
14:56:06	309.0000	365.0000	0
14:56:06	320.0000	346.0000	0
14:56:06	320.0000	326.0000	0
14:56:06	304.0000	421.0000	0
14:56:06	303.0000	395.0000	0
14:56:06	299.0000	373.0000	0
14:56:06	302.0000	361.0000	0
14:56:06	327.0000	352.0000	0
14:56:06	325.0000	337.0000	0
14:56:06	299.0000	410.0000	0
14:56:06	301.0000	395.0000	0
14:56:06	297.0000	371.0000	0
14:56:06	294.0000	356.0000	0
14:56:06	304.0000	336.0000	0
14:56:06	317.0000	338.0000	0
14:56:06	299.0000	421.0000	0
14:56:06	298.0000	395.0000	0
14:56:06	294.0000	370.0000	0
14:56:06	290.0000	365.0000	0
14:56:06	302.0000	341.0000	0
14:56:06	313.0000	334.0000	0
14:56:06	303.0000	429.0000	0
14:56:06	298.0000	394.0000	0
14:56:06	297.0000	370.0000	0
14:56:06	293.0000	362.0000	0
14:56:06	293.0000	341.0000	0
14:56:06	310.0000	334.0000	0
14:56:06	302.0000	413.0000	0
14:56:06	302.0000	400.0000	0
14:56:06	298.0000	371.0000	0
14:56:06	299.0000	346.0000	0
14:56:06	302.0000	350.0000	0
14:56:06	306.0000	334.0000	0
14:56:06	302.0000	427.0000	0
14:56:06	298.0000	389.0000	0
14:56:06	293.0000	366.0000	0
14:56:06	290.0000	357.0000	0
14:56:06	293.0000	336.0000	0
14:56:06	304.0000	335.0000	0
14:56:06	314.0000	325.0000	0
14:56:06	302.0000	418.0000	0
14:56:06	297.0000	389.0000	0
14:56:06	289.0000	375.0000	0
14:56:06	295.0000	352.0000	0
14:56:06	294.0000	335.0000	0
14:56:06	315.0000	335.0000	0
14:56:06	296.0000	420.0000	0
14:56:06	294.0000	391.0000	0
14:56:06	291.0000	370.0000	0
14:56:06	291.0000	362.0000	0
14:56:06	297.0000	342.0000	0
14:56:06	311.0000	333.0000	0
14:56:06	294.0000	427.0000	0
14:56:06	289.0000	394.0000	0
14:56:06	286.0000	369.0000	0
14:56:06	284.0000	353.0000	0
14:56:06	294.0000	338.0000	0
14:56:06	302.0000	330.0000	0
14:56:06	299.0000	418.0000	0
14:56:06	297.0000	391.0000	0
14:56:06	297.0000	369.0000	0
14:56:06	298.0000	359.0000	0
14:56:06	293.0000	336.0000	0
14:56:06	309.0000	336.0000	0
14:56:06	294.0000	418.0000	0
14:56:06	292.0000	390.0000	0
14:56:06	290.0000	369.0000	0
14:56:06	287.0000	354.0000	0
14:56:06	287.0000	348.0000	0
14:56:06	301.0000	333.0000	0
14:56:06	288.0000	416.0000	0
14:56:06	287.0000	393.0000	0
14:56:06	286.0000	370.0000	0
14:56:06	284.0000	357.0000	0
14:56:06	290.0000	340.0000	0
14:56:06	300.0000	336.0000	0
14:56:06	305.0000	316.0000	0
14:56:06	293.0000	416.0000	0
14:56:06	295.0000	390.0000	0
14:56:06	291.0000	368.0000	0
14:56:06	289.0000	356.0000	0
14:56:06	310.0000	343.0000	0
14:56:06	311.0000	337.0000	0
14:56:06	297.0000	421.0000	0
14:56:06	294.0000	393.0000	0
14:56:06	290.0000	375.0000	0
14:56:06	287.0000	357.0000	0
14:56:06	293.0000	345.0000	0
14:56:06	309.0000	334.0000	0
14:56:06	302.0000	422.0000	0
14:56:06	298.0000	397.0000	0
14:56:06	295.0000	375.0000	0
14:56:06	288.0000	354.0000	0
14:56:06	291.0000	346.0000	0
14:56:06	307.0000	335.0000	0
14:56:06	306.0000	430.0000	0
14:56:06	294.0000	397.0000	0
14:56:06	942.0000	639.0000	0
14:56:06	974.0000	609.0000	0
14:56:06	991.0000	592.0000	0
14:56:06	976.0000	563.0000	0
14:56:06	955.0000	541.0000	0
14:56:06	1439.0000	586.0000	0
14:56:06	1535.0000	592.0000	0
14:56:06	1582.0000	592.0000	0
14:56:06	1535.0000	596.0000	0
14:56:06	1606.0000	610.0000	0
14:56:06	1714.0000	611.0000	0
14:56:06	1578.0000	630.0000	0
14:56:06	1533.0000	625.0000	0
14:56:06	1497.0000	625.0000	0
14:56:06	1478.0000	626.0000	0
14:56:06	1438.0000	606.0000	0
14:56:06	1421.0000	608.0000	0
14:56:06	1303.0000	622.0000	0
14:56:06	1266.0000	596.0000	0
14:56:06	1252.0000	593.0000	0
14:56:06	1245.0000	579.0000	0
14:56:06	1264.0000	571.0000	0
14:56:06	1282.0000	557.0000	0
14:56:06	1248.0000	582.0000	0
14:56:06	1264.0000	569.0000	0
14:56:06	1333.0000	572.0000	0
14:56:06	1383.0000	576.0000	0
14:56:06	1383.0000	567.0000	0
14:56:06	1365.0000	560.0000	0
14:56:06	1633.0000	613.0000	0
14:56:06	1607.0000	607.0000	0
14:56:06	1600.0000	610.0000	0
14:56:06	1615.0000	617.0000	0
14:56:06	1632.0000	619.0000	0
14:56:06	1648.0000	624.0000	0
14:56:06	1489.0000	633.0000	0
14:56:06	1463.0000	633.0000	0
14:56:06	1434.0000	622.0000	0
14:56:06	1412.0000	617.0000	0
14:56:06	1396.0000	607.0000	0
14:56:06	1381.0000	599.0000	0
14:56:06	1370.0000	613.0000	0
14:56:06	1447.0000	606.0000	0
14:56:06	1499.0000	609.0000	0
14:56:06	1600.0000	611.0000	0
14:56:06	1616.0000	615.0000	0
14:56:06	1682.0000	621.0000	0
14:56:06	2087.0000	661.0000	0
14:56:06	2034.0000	681.0000	0
14:56:06	1984.0000	694.0000	0
14:56:06	1930.0000	700.0000	0
14:56:06	1885.0000	705.0000	0
14:56:06	1829.0000	704.0000	0
14:56:06	1488.0000	686.0000	0
14:56:06	1515.0000	675.0000	0
14:56:06	1495.0000	661.0000	0
14:56:06	1584.0000	656.0000	0
14:56:06	1723.0000	659.0000	0
14:56:06	1859.0000	670.0000	0
14:56:06	2064.0000	691.0000	0
14:56:06	2057.0000	707.0000	0
14:56:06	2015.0000	716.0000	0
14:56:06	1955.0000	720.0000	0
14:56:06	1910.0000	727.0000	0
14:56:06	1874.0000	728.0000	1
14:56:06	2078.0000	729.0000	0
14:56:06	2150.0000	746.0000	0
14:56:06	2227.0000	765.0000	1
14:56:06	2341.0000	779.0000	2
14:56:06	2358.0000	788.0000	4
14:56:06	2303.0000	803.0000	0
14:56:06	2080.0000	786.0000	0
14:56:06	2078.0000	793.0000	0
14:56:06	2017.0000	796.0000	6
14:56:06	2000.0000	784.0000	7
14:56:06	2007.0000	789.0000	2
14:56:06	1969.0000	789.0000	3
14:56:06	2559.0000	802.0000	0
14:56:06	2699.0000	835.0000	5
14:56:06	2898.0000	873.0000	6
14:56:06	2958.0000	907.0000	14
14:56:06	2875.0000	938.0000	16
14:56:06	2853.0000	966.0000	16
14:56:06	2905.0000	972.0000	0
14:56:06	2959.0000	993.0000	4
14:56:06	3126.0000	1026.0000	27
14:56:06	3462.0000	1067.0000	31
14:56:06	3706.0000	1109.0000	44
14:56:06	3685.0000	1150.0000	27
14:56:06	3696.0000	1166.0000	0
14:56:06	3698.0000	1191.0000	22
14:56:06	3683.0000	1221.0000	28
14:56:06	3699.0000	1241.0000	49
14:56:06	3698.0000	1276.0000	48
14:56:06	3715.0000	1299.0000	41
14:56:06	3471.0000	1289.0000	16
14:56:06	3300.0000	1282.0000	30
14:56:06	3147.0000	1279.0000	45
14:56:06	3008.0000	1282.0000	43
14:56:06	2999.0000	1273.0000	45
14:56:06	3580.0000	1275.0000	5
14:56:06	3501.0000	1266.0000	34
14:56:06	3339.0000	1268.0000	50
14:56:06	3350.0000	1283.0000	51
14:56:06	3583.0000	1301.0000	47
14:56:06	3654.0000	1317.0000	53
14:56:06	3703.0000	1320.0000	7
14:56:06	3696.0000	1326.0000	30
14:56:06	3696.0000	1334.0000	43
14:56:06	3702.0000	1353.0000	48
14:56:06	3693.0000	1365.0000	53
14:56:06	3702.0000	1371.0000	54
14:56:06	3703.0000	1370.0000	16
14:56:06	3712.0000	1369.0000	31
14:56:06	3695.0000	1376.0000	47
14:56:06	3683.0000	1379.0000	54
14:56:06	3712.0000	1394.0000	64
14:56:06	3707.0000	1388.0000	13
14:56:06	3707.0000	1380.0000	41
14:56:06	3707.0000	1371.0000	61
14:56:06	3699.0000	1387.0000	64
14:56:06	3718.0000	1399.0000	58
14:56:06	3696.0000	1411.0000	69
14:56:06	3709.0000	1406.0000	11
14:56:06	3745.0000	1396.0000	34
14:56:06	3710.0000	1407.0000	47
14:56:06	3709.0000	1409.0000	51
14:56:06	3713.0000	1420.0000	57
14:56:06	3725.0000	1426.0000	50
14:56:06	3710.0000	1410.0000	15
14:56:06	3716.0000	1414.0000	35
14:56:06	3719.0000	1413.0000	40
14:56:06	3699.0000	1415.0000	46
14:56:06	3723.0000	1431.0000	50
14:56:06	3715.0000	1415.0000	11
14:56:06	3715.0000	1405.0000	35
14:56:06	3711.0000	1399.0000	55
14:56:06	3717.0000	1408.0000	63
14:56:06	3722.0000	1416.0000	61
14:56:06	3696.0000	1415.0000	64
14:56:06	3725.0000	1413.0000	17
14:56:06	3699.0000	1403.0000	43
14:56:06	3703.0000	1408.0000	48
14:56:06	3726.0000	1424.0000	56
14:56:06	3722.0000	1424.0000	58
14:56:06	3701.0000	1437.0000	65
14:56:06	3733.0000	1428.0000	7
14:56:06	3713.0000	1414.0000	35
14:56:06	3712.0000	1418.0000	48
14:56:06	3709.0000	1424.0000	55
14:56:06	3712.0000	1424.0000	58
14:56:06	3723.0000	1423.0000	11
14:56:06	3701.0000	1415.0000	34
14:56:06	3725.0000	1424.0000	48
14:56:06	3716.0000	1423.0000	56
14:56:06	3711.0000	1427.0000	58
14:56:06	3696.0000	1432.0000	64
14:56:06	3715.0000	1431.0000	12
14:56:06	3730.0000	1419.0000	21
14:56:06	3777.0000	1421.0000	46
14:56:06	3712.0000	1421.0000	48
14:56:06	3718.0000	1434.0000	58
14:56:06	3696.0000	1439.0000	51
14:56:06	3717.0000	1437.0000	4
14:56:06	3718.0000	1424.0000	32
14:56:06	3716.0000	1423.0000	45
14:56:06	3707.0000	1421.0000	59
14:56:06	3715.0000	1432.0000	55
14:56:06	3715.0000	1423.0000	12
14:56:06	3712.0000	1418.0000	33
14:56:06	3723.0000	1417.0000	47
14:56:06	3711.0000	1424.0000	53
14:56:06	3712.0000	1433.0000	53
14:56:06	3714.0000	1438.0000	63
14:56:06	3726.0000	1430.0000	12
14:56:06	3699.0000	1424.0000	27
14:56:06	3723.0000	1420.0000	51
14:56:06	3712.0000	1422.0000	49
14:56:06	3716.0000	1430.0000	60
14:56:06	3696.0000	1436.0000	64
14:56:06	3713.0000	1428.0000	9
14:56:06	3717.0000	1419.0000	35
14:56:06	3698.0000	1417.0000	42
14:56:07	3707.0000	1415.0000	66
14:56:07	3707.0000	1420.0000	66
14:56:07	3711.0000	1422.0000	16
14:56:07	3715.0000	1404.0000	48
14:56:07	3722.0000	1409.0000	55
14:56:07	3714.0000	1413.0000	61
14:56:07	3710.0000	1426.0000	63
14:56:07	3724.0000	1432.0000	62
14:56:07	3719.0000	1421.0000	14
14:56:07	3702.0000	1424.0000	23
14:56:07	3712.0000	1425.0000	48
14:56:07	3712.0000	1422.0000	49
14:56:07	3726.0000	1444.0000	48
14:56:07	3699.0000	1432.0000	64
14:56:07	3712.0000	1429.0000	12
14:56:07	3719.0000	1413.0000	46
14:56:07	3712.0000	1412.0000	53
14:56:07	3723.0000	1420.0000	57
14:56:07	3714.0000	1419.0000	64
14:56:07	3722.0000	1420.0000	13
14:56:07	3711.0000	1408.0000	46
14:56:07	3718.0000	1405.0000	54
14:56:07	3713.0000	1411.0000	63
14:56:07	3709.0000	1421.0000	62
14:56:07	3717.0000	1421.0000	64
14:56:07	3729.0000	1425.0000	0
14:56:07	3706.0000	1414.0000	26
14:56:07	3725.0000	1423.0000	45
14:56:07	3714.0000	1429.0000	57
14:56:07	3701.0000	1428.0000	47
14:56:07	3719.0000	1441.0000	54
14:56:07	3743.0000	1422.0000	13
14:56:07	3707.0000	1421.0000	27
14:56:07	3702.0000	1421.0000	48
14:56:07	3713.0000	1420.0000	57
14:56:07	3714.0000	1421.0000	64
14:56:07	3719.0000	1413.0000	14
14:56:07	3726.0000	1405.0000	36
14:56:07	3715.0000	1407.0000	48
14:56:07	3715.0000	1417.0000	50
14:56:07	3715.0000	1419.0000	61
14:56:07	3717.0000	1431.0000	55
14:56:07	3711.0000	1418.0000	3
14:56:07	3718.0000	1416.0000	41
14:56:07	3711.0000	1420.0000	46
14:56:07	3716.0000	1412.0000	56
14:56:07	3701.0000	1425.0000	47
14:56:07	3715.0000	1436.0000	58
14:56:07	3718.0000	1422.0000	11
14:56:07	3716.0000	1419.0000	31
14:56:07	3714.0000	1416.0000	52
14:56:07	3712.0000	1423.0000	49
14:56:07	3719.0000	1430.0000	60
14:56:07	3718.0000	1418.0000	13
14:56:07	3715.0000	1408.0000	34
14:56:07	3727.0000	1404.0000	63
14:56:07	3697.0000	1412.0000	54
14:56:07	3713.0000	1415.0000	65
14:56:07	3749.0000	1426.0000	64
14:56:07	3717.0000	1413.0000	17
14:56:07	3712.0000	1406.0000	52
14:56:07	3729.0000	1405.0000	58
14:56:07	3697.0000	1417.0000	63
14:56:07	3718.0000	1426.0000	59
14:56:07	3734.0000	1440.0000	60
14:56:07	3717.0000	1424.0000	11
14:56:07	3715.0000	1413.0000	37
14:56:07	3721.0000	1416.0000	51
14:56:07	3713.0000	1429.0000	50
14:56:07	3729.0000	1444.0000	48
14:56:07	3718.0000	1415.0000	16
14:56:07	3745.0000	1409.0000	34
14:56:07	3713.0000	1411.0000	48
14:56:07	3712.0000	1414.0000	54
14:56:07	3740.0000	1429.0000	54
14:56:07	3727.0000	1425.0000	57
14:56:07	3707.0000	1423.0000	3
14:56:07	3710.0000	1413.0000	43
14:56:07	3721.0000	1413.0000	48
14:56:07	3734.0000	1439.0000	42
14:56:07	3700.0000	1416.0000	52
14:56:07	3711.0000	1439.0000	52
14:56:07	3721.0000	1425.0000	7
14:56:07	3706.0000	1420.0000	34
14:56:07	3726.0000	1423.0000	46
14:56:07	3718.0000	1431.0000	54
14:56:07	3700.0000	1434.0000	48
14:56:07	3717.0000	1424.0000	5
14:56:07	3712.0000	1410.0000	40
14:56:07	3728.0000	1422.0000	49
14:56:07	3703.0000	1417.0000	61
14:56:07	3716.0000	1427.0000	64
14:56:07	3712.0000	1439.0000	67
14:56:07	3723.0000	1431.0000	11
14:56:07	3730.0000	1413.0000	42
14:56:07	3692.0000	1412.0000	55
14:56:07	3699.0000	1415.0000	66
14:56:07	3717.0000	1421.0000	73
14:56:07	3713.0000	1428.0000	68
14:56:07	3722.0000	1435.0000	10
14:56:07	3719.0000	1417.0000	34
14:56:07	3715.0000	1426.0000	49
14:56:07	3715.0000	1428.0000	62
14:56:07	3709.0000	1427.0000	57
14:56:07	3729.0000	1424.0000	11
14:56:07	3727.0000	1413.0000	34
14:56:07	3715.0000	1419.0000	49
14:56:07	3711.0000	1420.0000	62
14:56:07	3711.0000	1428.0000	57
14:56:07	3718.0000	1430.0000	51
14:56:07	3717.0000	1433.0000	9
14:56:07	3715.0000	1418.0000	33
14:56:07	3715.0000	1416.0000	51
14:56:07	3703.0000	1425.0000	45
14:56:07	3712.0000	1431.0000	64
14:56:07	3720.0000	1433.0000	59
14:56:07	3723.0000	1429.0000	13
14:56:07	3714.0000	1407.0000	50
14:56:07	3725.0000	1413.0000	58
14:56:07	3694.0000	1418.0000	53
14:56:07	3728.0000	1425.0000	62
14:56:07	3710.0000	1425.0000	10
14:56:07	3715.0000	1414.0000	34
14:56:07	3714.0000	1419.0000	47
14:56:07	3711.0000	1425.0000	61
14:56:07	3712.0000	1428.0000	58
14:56:07	3719.0000	1445.0000	51
14:56:07	3715.0000	1423.0000	19
14:56:07	3738.0000	1411.0000	46
14:56:07	3728.0000	1412.0000	48
14:56:07	3722.0000	1417.0000	62
14:56:07	3728.0000	1428.0000	64
14:56:07	3719.0000	1434.0000	69
14:56:07	3719.0000	1429.0000	15
14:56:07	3690.0000	1413.0000	43
14:56:07	3718.0000	1406.0000	59
14:56:07	3730.0000	1429.0000	55
14:56:07	3702.0000	1410.0000	67
14:56:07	3713.0000	1421.0000	13
14:56:07	3722.0000	1412.0000	37
14:56:07	3713.0000	1414.0000	48
14:56:07	3729.0000	1431.0000	51
14:56:07	3717.0000	1430.0000	53
14:56:07	3714.0000	1430.0000	55
14:56:07	3729.0000	1430.0000	8
14:56:07	3715.0000	1418.0000	37
14:56:07	3721.0000	1429.0000	43
14:56:07	3699.0000	1417.0000	52
14:56:07	3715.0000	1435.0000	54
14:56:07	3718.0000	1443.0000	55
14:56:07	3717.0000	1439.0000	1
14:56:07	3728.0000	1423.0000	35
14:56:07	3698.0000	1423.0000	48
14:56:07	3741.0000	1420.0000	48
14:56:07	3713.0000	1425.0000	63
14:56:07	3722.0000	1424.0000	14
14:56:07	3714.0000	1417.0000	39
14:56:07	3717.0000	1419.0000	48
14:56:07	3714.0000	1426.0000	57
14:56:07	3717.0000	1427.0000	62
14:56:07	3719.0000	1437.0000	48
14:56:07	3728.0000	1426.0000	12
14:56:07	3716.0000	1429.0000	35
14:56:07	3700.0000	1420.0000	38
14:56:07	3701.0000	1430.0000	57
14:56:07	3723.0000	1443.0000	55
14:56:07	3717.0000	1441.0000	59
14:56:07	3718.0000	1430.0000	11
14:56:07	3706.0000	1422.0000	36
14:56:07	3715.0000	1419.0000	52
14:56:07	3723.0000	1430.0000	52
14:56:07	3716.0000	1436.0000	52
14:56:07	3715.0000	1425.0000	13
14:56:07	3717.0000	1419.0000	33
14:56:07	3714.0000	1416.0000	51
14:56:07	3718.0000	1424.0000	51
14:56:07	3711.0000	1430.0000	56
14:56:07	3721.0000	1437.0000	59
14:56:07	3709.0000	1426.0000	14
14:56:07	3715.0000	1417.0000	37
14:56:07	3712.0000	1420.0000	48
14:56:07	3728.0000	1431.0000	53
14:56:07	3712.0000	1428.0000	57
14:56:07	3710.0000	1435.0000	64
14:56:07	3730.0000	1435.0000	10
14:56:07	3722.0000	1411.0000	43
14:56:07	3712.0000	1415.0000	55
14:56:07	3714.0000	1419.0000	62
14:56:07	3719.0000	1427.0000	67
14:56:07	3723.0000	1426.0000	3
14:56:07	3698.0000	1410.0000	45
14:56:07	3728.0000	1414.0000	54
14:56:07	3714.0000	1414.0000	59
14:56:07	3714.0000	1424.0000	61
14:56:07	3714.0000	1436.0000	60
14:56:07	3724.0000	1427.0000	5
14:56:07	3726.0000	1419.0000	26
14:56:07	3725.0000	1423.0000	44
14:56:07	3717.0000	1428.0000	48
14:56:07	3717.0000	1434.0000	58
14:56:07	3703.0000	1440.0000	48
14:56:07	3728.0000	1434.0000	5
14:56:07	3713.0000	1418.0000	35
14:56:07	3702.0000	1410.0000	44
14:56:07	3744.0000	1418.0000	64
14:56:07	3696.0000	1427.0000	64
14:56:07	3721.0000	1419.0000	15
14:56:07	3712.0000	1414.0000	38
14:56:07	3714.0000	1412.0000	58
14:56:07	3717.0000	1423.0000	59
14:56:07	3714.0000	1431.0000	55
14:56:07	3712.0000	1435.0000	63
14:56:07	3719.0000	1429.0000	14
14:56:07	3717.0000	1417.0000	37
14:56:07	3723.0000	1417.0000	48
14:56:07	3718.0000	1421.0000	51
14:56:07	3715.0000	1431.0000	55
14:56:07	3698.0000	1434.0000	51
14:56:07	3711.0000	1425.0000	14
14:56:07	3717.0000	1421.0000	41
14:56:07	3696.0000	1418.0000	41
14:56:07	3724.0000	1421.0000	59
14:56:07	3712.0000	1431.0000	56
14:56:07	3722.0000	1417.0000	12
14:56:07	3719.0000	1416.0000	34
14:56:07	3715.0000	1413.0000	47
14:56:07	3713.0000	1415.0000	55
14:56:07	3714.0000	1434.0000	53
14:56:07	3730.0000	1441.0000	58
14:56:07	3723.0000	1430.0000	5
14:56:07	3728.0000	1425.0000	31
14:56:07	3716.0000	1419.0000	48
14:56:07	3723.0000	1430.0000	49
14:56:07	3726.0000	1430.0000	46
14:56:07	3699.0000	1429.0000	57
14:56:07	3712.0000	1426.0000	9
14:56:07	3712.0000	1418.0000	32
14:56:07	3715.0000	1420.0000	47
14:56:07	3710.0000	1424.0000	61
14:56:07	3718.0000	1428.0000	57
14:56:07	3714.0000	1424.0000	10
14:56:07	3715.0000	1411.0000	33
14:56:07	3715.0000	1416.0000	45
14:56:07	3715.0000	1427.0000	48
14:56:07	3713.0000	1436.0000	49
14:56:07	3712.0000	1437.0000	54
14:56:07	3722.0000	1431.0000	11
14:56:07	3713.0000	1422.0000	32
14:56:07	3718.0000	1421.0000	48
14:56:07	3711.0000	1430.0000	57
14:56:07	3722.0000	1431.0000	60
14:56:07	3717.0000	1436.0000	64
14:56:07	3719.0000	1432.0000	7
14:56:07	3714.0000	1429.0000	35
14:56:07	3702.0000	1418.0000	38
14:56:07	3722.0000	1427.0000	51
14:56:07	3713.0000	1434.0000	49
14:56:07	3731.0000	1426.0000	3
14:56:07	3693.0000	1403.0000	42
14:56:07	3712.0000	1409.0000	61
14:56:07	3721.0000	1414.0000	59
14:56:07	3718.0000	1422.0000	66
14:56:07	3713.0000	1433.0000	66
14:56:07	3728.0000	1432.0000	5
14:56:07	3735.0000	1423.0000	25
14:56:07	3723.0000	1423.0000	46
14:56:07	3718.0000	1430.0000	50
14:56:07	3715.0000	1433.0000	62
14:56:07	3715.0000	1440.0000	49
14:56:07	3730.0000	1447.0000	4
14:56:07	3716.0000	1421.0000	32
14:56:07	3721.0000	1434.0000	43
14:56:07	3699.0000	1435.0000	48
14:56:07	3714.0000	1428.0000	52
14:56:07	3730.0000	1446.0000	0
14:56:07	3703.0000	1417.0000	42
14:56:07	3731.0000	1419.0000	43
14:56:07	3717.0000	1426.0000	49
14:56:07	3706.0000	1438.0000	48
14:56:07	3715.0000	1436.0000	63
14:56:07	3718.0000	1432.0000	9
14:56:08	3723.0000	1420.0000	33
14:56:08	3713.0000	1422.0000	46
14:56:08	3715.0000	1437.0000	50
14:56:08	3717.0000	1435.0000	53
14:56:08	3716.0000	1440.0000	57
14:56:08	3715.0000	1430.0000	5
14:56:08	3720.0000	1421.0000	43
14:56:08	3702.0000	1424.0000	39
14:56:08	3722.0000	1428.0000	53
14:56:08	3728.0000	1434.0000	55
14:56:08	3724.0000	1426.0000	12
14:56:08	3719.0000	1410.0000	46
14:56:08	3714.0000	1411.0000	55
14:56:08	3719.0000	1419.0000	60
14:56:08	3698.0000	1427.0000	54
14:56:08	3725.0000	1441.0000	63
14:56:08	3719.0000	1432.0000	15
14:56:08	3716.0000	1419.0000	35
14:56:08	3713.0000	1423.0000	51
14:56:08	3717.0000	1434.0000	48
14:56:08	3722.0000	1436.0000	49
14:56:08	3701.0000	1424.0000	53
14:56:08	3725.0000	1435.0000	11
14:56:08	3740.0000	1420.0000	34
14:56:08	3719.0000	1424.0000	46
14:56:08	3735.0000	1427.0000	53
14:56:08	3715.0000	1437.0000	57
14:56:08	3725.0000	1429.0000	10
14:56:08	3718.0000	1420.0000	41
14:56:08	3714.0000	1421.0000	47
14:56:08	3714.0000	1427.0000	59
14:56:08	3722.0000	1431.0000	52
14:56:08	3715.0000	1440.0000	54
14:56:08	3725.0000	1429.0000	11
14:56:08	3744.0000	1420.0000	35
14:56:08	3715.0000	1427.0000	47
14:56:08	3715.0000	1428.0000	48
14:56:08	3711.0000	1435.0000	50
14:56:08	3711.0000	1440.0000	54
14:56:08	3719.0000	1433.0000	11
14:56:08	3726.0000	1420.0000	27
14:56:08	3719.0000	1423.0000	48
14:56:08	3731.0000	1438.0000	50
14:56:08	3715.0000	1436.0000	57
14:56:08	3710.0000	1425.0000	1
14:56:08	3713.0000	1423.0000	35
14:56:08	3719.0000	1419.0000	46
14:56:08	3728.0000	1438.0000	43
14:56:08	3707.0000	1418.0000	53
14:56:08	3712.0000	1435.0000	54
14:56:08	3715.0000	1424.0000	9
14:56:08	3722.0000	1418.0000	33
14:56:08	3730.0000	1424.0000	45
14:56:08	3712.0000	1429.0000	49
14:56:08	3738.0000	1430.0000	44
14:56:08	3702.0000	1443.0000	54
14:56:08	3723.0000	1428.0000	14
14:56:08	3717.0000	1421.0000	33
14:56:08	3725.0000	1422.0000	47
14:56:08	3727.0000	1428.0000	49
14:56:08	3712.0000	1431.0000	55
14:56:08	3717.0000	1422.0000	13
14:56:08	3717.0000	1411.0000	35
14:56:08	3725.0000	1417.0000	48
14:56:08	3723.0000	1424.0000	47
14:56:08	3720.0000	1429.0000	52
14:56:08	3718.0000	1436.0000	57
14:56:08	3715.0000	1425.0000	9
14:56:08	3711.0000	1419.0000	33
14:56:08	3717.0000	1420.0000	48
14:56:08	3712.0000	1426.0000	54
14:56:08	3707.0000	1423.0000	58
14:56:08	3713.0000	1435.0000	58
14:56:08	3712.0000	1425.0000	12
14:56:08	3719.0000	1417.0000	27
14:56:08	3696.0000	1411.0000	45
14:56:08	3724.0000	1428.0000	49
14:56:08	3713.0000	1428.0000	54
14:56:08	3712.0000	1421.0000	9
14:56:08	3725.0000	1423.0000	32
14:56:08	3706.0000	1413.0000	48
14:56:08	3708.0000	1420.0000	54
14:56:08	3706.0000	1427.0000	54
14:56:08	3715.0000	1431.0000	59
14:56:08	3707.0000	1421.0000	12
14:56:08	3692.0000	1412.0000	37
14:56:08	3716.0000	1415.0000	47
14:56:08	3707.0000	1421.0000	51
14:56:08	3687.0000	1429.0000	48
14:56:08	3699.0000	1437.0000	64
14:56:08	3393.0000	1418.0000	5
14:56:08	3248.0000	1399.0000	19
14:56:08	3111.0000	1370.0000	44
14:56:08	2965.0000	1360.0000	49
14:56:08	2866.0000	1344.0000	49
14:56:08	2671.0000	1304.0000	0
14:56:08	2611.0000	1277.0000	18
14:56:08	2547.0000	1249.0000	27
14:56:08	2626.0000	1229.0000	24
14:56:08	2595.0000	1217.0000	32
14:56:08	2546.0000	1198.0000	32
14:56:08	2559.0000	1168.0000	0
14:56:08	2592.0000	1153.0000	14
14:56:08	2591.0000	1141.0000	25
14:56:08	2768.0000	1144.0000	23
14:56:08	2981.0000	1158.0000	27
14:56:08	3087.0000	1166.0000	37
14:56:08	2622.0000	1148.0000	0
14:56:08	2537.0000	1132.0000	12
14:56:08	2465.0000	1118.0000	23
14:56:08	2391.0000	1109.0000	21
14:56:08	2309.0000	1090.0000	30
14:56:08	2000.0000	1046.0000	0
14:56:08	1977.0000	1008.0000	2
14:56:08	1927.0000	986.0000	16
14:56:08	1872.0000	957.0000	6
14:56:08	1834.0000	934.0000	16
14:56:08	1781.0000	911.0000	7
14:56:08	1487.0000	851.0000	0
14:56:08	1454.0000	820.0000	0
14:56:08	1408.0000	789.0000	0
14:56:08	1375.0000	767.0000	0
14:56:08	1339.0000	734.0000	0
14:56:08	1309.0000	710.0000	2
14:56:08	1110.0000	676.0000	0
14:56:08	1084.0000	650.0000	0
14:56:08	1051.0000	624.0000	0
14:56:08	1040.0000	595.0000	0
14:56:08	1037.0000	578.0000	0
14:56:08	1012.0000	556.0000	0
14:56:08	1055.0000	578.0000	0
14:56:08	1033.0000	560.0000	0
14:56:08	999.0000	539.0000	0
14:56:08	1023.0000	533.0000	0
14:56:08	1090.0000	528.0000	0
14:56:08	1134.0000	511.0000	0
14:56:08	1126.0000	560.0000	0
14:56:08	1146.0000	552.0000	0
14:56:08	1130.0000	538.0000	0
14:56:08	1108.0000	523.0000	0
14:56:08	1075.0000	523.0000	0
14:56:08	1045.0000	509.0000	0
14:56:08	891.0000	542.0000	0
14:56:08	880.0000	527.0000	0
14:56:08	864.0000	497.0000	0
14:56:08	851.0000	487.0000	0
14:56:08	848.0000	478.0000	0
14:56:08	834.0000	466.0000	0
14:56:08	767.0000	510.0000	0
14:56:08	752.0000	483.0000	0
14:56:08	743.0000	475.0000	0
14:56:08	736.0000	458.0000	0
14:56:08	720.0000	449.0000	0
14:56:08	703.0000	433.0000	0
14:56:08	668.0000	496.0000	0
14:56:08	656.0000	468.0000	0
14:56:08	647.0000	448.0000	0
14:56:08	628.0000	434.0000	0
14:56:08	617.0000	424.0000	0
14:56:08	605.0000	413.0000	0
14:56:08	586.0000	471.0000	0
14:56:08	589.0000	463.0000	0
14:56:08	576.0000	434.0000	0
14:56:08	563.0000	410.0000	0
14:56:08	549.0000	405.0000	0
14:56:08	531.0000	396.0000	0
14:56:08	511.0000	385.0000	0
14:56:08	465.0000	461.0000	0
14:56:08	464.0000	434.0000	0
14:56:08	452.0000	413.0000	0
14:56:08	433.0000	395.0000	0
14:56:08	454.0000	384.0000	0
14:56:08	433.0000	373.0000	0
14:56:08	421.0000	451.0000	0
14:56:08	415.0000	428.0000	0
14:56:08	406.0000	409.0000	0
14:56:08	401.0000	386.0000	0
14:56:08	400.0000	374.0000	0
14:56:08	400.0000	365.0000	0
14:56:08	415.0000	449.0000	0
14:56:08	429.0000	421.0000	0
14:56:08	431.0000	397.0000	0
14:56:08	448.0000	387.0000	0
14:56:08	471.0000	380.0000	0
14:56:08	464.0000	366.0000	0
14:56:08	586.0000	463.0000	0
14:56:08	616.0000	436.0000	0
14:56:08	631.0000	436.0000	0
14:56:08	627.0000	409.0000	0
14:56:08	621.0000	404.0000	0
14:56:08	607.0000	398.0000	0
14:56:08	523.0000	464.0000	0
14:56:08	508.0000	439.0000	0
14:56:08	496.0000	422.0000	0
14:56:08	496.0000	411.0000	0
14:56:08	478.0000	391.0000	0
14:56:08	480.0000	385.0000	0
14:56:08	423.0000	455.0000	0
14:56:08	414.0000	430.0000	0
14:56:08	403.0000	404.0000	0
14:56:08	400.0000	391.0000	0
14:56:08	394.0000	382.0000	0
14:56:08	385.0000	356.0000	0
14:56:08	371.0000	442.0000	0
14:56:08	371.0000	418.0000	0
14:56:08	364.0000	386.0000	0
14:56:08	356.0000	378.0000	0
14:56:08	347.0000	366.0000	0
14:56:08	347.0000	362.0000	0
14:56:08	349.0000	441.0000	0
14:56:08	349.0000	411.0000	0
14:56:08	341.0000	388.0000	0
14:56:08	336.0000	370.0000	0
14:56:08	324.0000	357.0000	0
14:56:09	327.0000	351.0000	0
14:56:09	318.0000	336.0000	0
14:56:09	288.0000	432.0000	0
14:56:09	272.0000	400.0000	0
14:56:09	279.0000	376.0000	0
14:56:09	272.0000	353.0000	0
14:56:09	282.0000	346.0000	0
14:56:09	272.0000	335.0000	0
14:56:09	284.0000	416.0000	0
14:56:09	309.0000	400.0000	0
14:56:09	320.0000	380.0000	0
14:56:09	338.0000	365.0000	0
14:56:09	362.0000	349.0000	0
14:56:09	402.0000	348.0000	0
14:56:09	507.0000	445.0000	0
14:56:09	530.0000	424.0000	0
14:56:09	551.0000	417.0000	0
14:56:09	560.0000	400.0000	0
14:56:09	556.0000	394.0000	0
14:56:09	568.0000	374.0000	0
14:56:09	724.0000	474.0000	0
14:56:09	748.0000	452.0000	0
14:56:09	783.0000	441.0000	0
14:56:09	817.0000	434.0000	0
14:56:09	821.0000	432.0000	0
14:56:09	815.0000	429.0000	0
14:56:09	771.0000	491.0000	0
14:56:09	783.0000	480.0000	0
14:56:09	784.0000	461.0000	0
14:56:09	782.0000	455.0000	0
14:56:09	760.0000	441.0000	0
14:56:09	743.0000	429.0000	0
14:56:09	727.0000	423.0000	0
14:56:09	666.0000	482.0000	0
14:56:09	669.0000	466.0000	0
14:56:09	642.0000	444.0000	0
14:56:09	637.0000	430.0000	0
14:56:09	631.0000	419.0000	0
14:56:09	630.0000	405.0000	0
14:56:09	622.0000	471.0000	0
14:56:09	623.0000	451.0000	0
14:56:09	624.0000	443.0000	0
14:56:09	603.0000	422.0000	0
14:56:09	592.0000	400.0000	0
14:56:09	576.0000	390.0000	0
14:56:09	603.0000	466.0000	0
14:56:09	645.0000	453.0000	0
14:56:09	675.0000	427.0000	0
14:56:09	681.0000	431.0000	0
14:56:09	671.0000	415.0000	0
14:56:09	691.0000	399.0000	0
14:56:09	641.0000	474.0000	0
14:56:09	638.0000	454.0000	0
14:56:09	640.0000	446.0000	0
14:56:09	644.0000	419.0000	0
14:56:09	651.0000	419.0000	0
14:56:09	637.0000	406.0000	0
14:56:09	564.0000	468.0000	0
14:56:09	551.0000	439.0000	0
14:56:09	535.0000	432.0000	0
14:56:09	526.0000	410.0000	0
14:56:09	505.0000	397.0000	0
14:56:09	510.0000	398.0000	0
14:56:09	496.0000	378.0000	0
14:56:09	447.0000	453.0000	0
14:56:09	432.0000	425.0000	0
14:56:09	425.0000	404.0000	0
14:56:09	419.0000	390.0000	0
14:56:09	409.0000	372.0000	0
14:56:09	407.0000	373.0000	0
14:56:09	367.0000	441.0000	0
14:56:09	358.0000	413.0000	0
14:56:09	351.0000	389.0000	0
14:56:09	345.0000	382.0000	0
14:56:09	338.0000	358.0000	0
14:56:09	336.0000	347.0000	0
14:56:09	323.0000	431.0000	0
14:56:09	318.0000	406.0000	0
14:56:09	304.0000	374.0000	0
14:56:09	308.0000	368.0000	0
14:56:09	301.0000	350.0000	0
14:56:09	295.0000	341.0000	0
14:56:09	272.0000	416.0000	0
14:56:09	272.0000	395.0000	0
14:56:09	270.0000	373.0000	0
14:56:09	258.0000	347.0000	0
14:56:09	268.0000	345.0000	0
14:56:09	258.0000	328.0000	0
14:56:09	256.0000	321.0000	0
14:56:09	240.0000	415.0000	0
14:56:09	234.0000	388.0000	0
14:56:09	240.0000	368.0000	0
14:56:09	236.0000	339.0000	0
14:56:09	237.0000	334.0000	0
14:56:09	234.0000	323.0000	0
14:56:09	213.0000	418.0000	0
14:56:09	213.0000	390.0000	0
14:56:09	205.0000	361.0000	0
14:56:09	207.0000	345.0000	0
14:56:09	206.0000	322.0000	0
14:56:09	208.0000	319.0000	0
14:56:09	195.0000	415.0000	0
14:56:09	198.0000	385.0000	0
14:56:09	195.0000	359.0000	0
14:56:09	190.0000	345.0000	0
14:56:09	193.0000	328.0000	0
14:56:09	192.0000	313.0000	0
14:56:09	193.0000	418.0000	0
14:56:09	189.0000	381.0000	0
14:56:09	187.0000	355.0000	0
14:56:09	182.0000	336.0000	0
14:56:09	177.0000	322.0000	0
14:56:09	183.0000	314.0000	0
14:56:09	176.0000	402.0000	0
14:56:09	175.0000	385.0000	0
14:56:09	176.0000	354.0000	0
14:56:09	176.0000	338.0000	0
14:56:09	176.0000	314.0000	0
14:56:09	178.0000	309.0000	0
14:56:09	186.0000	409.0000	0
14:56:09	192.0000	384.0000	0
14:56:09	187.0000	363.0000	0
14:56:09	193.0000	336.0000	0
14:56:09	197.0000	329.0000	0
14:56:09	191.0000	304.0000	0
14:56:09	193.0000	304.0000	0
14:56:09	193.0000	407.0000	0
14:56:09	189.0000	378.0000	0
14:56:09	195.0000	361.0000	0
14:56:09	188.0000	336.0000	0
14:56:09	190.0000	326.0000	0
14:56:09	185.0000	304.0000	0
14:56:09	187.0000	406.0000	0
14:56:09	176.0000	371.0000	0
14:56:09	186.0000	350.0000	0
14:56:09	193.0000	343.0000	0
14:56:09	188.0000	329.0000	0
14:56:09	189.0000	304.0000	0
14:56:09	187.0000	410.0000	0
14:56:09	185.0000	383.0000	0
14:56:09	183.0000	364.0000	0
14:56:09	186.0000	336.0000	0
14:56:09	183.0000	322.0000	0
14:56:09	181.0000	311.0000	0
14:56:09	175.0000	410.0000	0
14:56:09	174.0000	379.0000	0
14:56:09	174.0000	355.0000	0
14:56:09	176.0000	336.0000	0
14:56:09	176.0000	320.0000	0
14:56:09	176.0000	308.0000	0
14:56:09	170.0000	406.0000	0
14:56:09	167.0000	369.0000	0
14:56:09	170.0000	353.0000	0
14:56:09	174.0000	341.0000	0
14:56:09	176.0000	322.0000	0
14:56:09	174.0000	306.0000	0
14:56:09	176.0000	407.0000	0
14:56:09	175.0000	378.0000	0
14:56:09	161.0000	346.0000	0
14:56:09	176.0000	337.0000	0
14:56:09	176.0000	320.0000	0
14:56:09	176.0000	316.0000	0
14:56:09	172.0000	403.0000	0
14:56:09	175.0000	386.0000	0
14:56:09	172.0000	354.0000	0
14:56:09	169.0000	335.0000	0
14:56:09	176.0000	323.0000	0
14:56:09	176.0000	307.0000	0
14:56:09	177.0000	302.0000	0
14:56:09	177.0000	400.0000	0
14:56:09	177.0000	375.0000	0
14:56:09	179.0000	354.0000	0
14:56:09	176.0000	335.0000	0
14:56:09	179.0000	320.0000	0
14:56:09	176.0000	307.0000	0
14:56:09	174.0000	407.0000	0
14:56:09	173.0000	381.0000	0
14:56:09	176.0000	353.0000	0
14:56:09	171.0000	336.0000	0
14:56:09	170.0000	314.0000	0
14:56:09	176.0000	310.0000	0
14:56:09	176.0000	411.0000	0
14:56:09	181.0000	383.0000	0
14:56:09	183.0000	357.0000	0
14:56:09	175.0000	338.0000	0
14:56:09	176.0000	321.0000	0
14:56:09	175.0000	309.0000	0
14:56:09	173.0000	303.0000	0
14:56:09	173.0000	406.0000	0
14:56:09	158.0000	368.0000	0
14:56:09	174.0000	352.0000	0
14:56:09	171.0000	332.0000	0
14:56:09	171.0000	320.0000	0
14:56:09	171.0000	304.0000	0
14:56:09	170.0000	401.0000	0
14:56:09	168.0000	373.0000	0
14:56:09	156.0000	337.0000	0
14:56:09	171.0000	332.0000	0
14:56:09	166.0000	319.0000	0
14:56:09	164.0000	307.0000	0
14:56:09	162.0000	410.0000	0
14:56:09	165.0000	380.0000	0
14:56:09	160.0000	353.0000	0
14:56:09	157.0000	326.0000	0
14:56:09	181.0000	322.0000	0
14:56:09	168.0000	306.0000	0
14:56:09	165.0000	409.0000	0
14:56:09	151.0000	378.0000	0
14:56:09	167.0000	361.0000	0
14:56:09	165.0000	336.0000	0
14:56:09	150.0000	310.0000	0
14:56:09	166.0000	309.0000	0
14:56:09	162.0000	300.0000	0
14:56:09	160.0000	405.0000	0
14:56:09	165.0000	376.0000	0
14:56:09	169.0000	350.0000	0
14:56:09	171.0000	335.0000	0
14:56:09	165.0000	310.0000	0
14:56:09	171.0000	307.0000	0
14:56:09	172.0000	410.0000	0
14:56:09	173.0000	378.0000	0
14:56:09	175.0000	355.0000	0
14:56:09	180.0000	336.0000	0
14:56:09	176.0000	321.0000	0
14:56:09	177.0000	305.0000	0
14:56:09	178.0000	412.0000	0
14:56:09	176.0000	377.0000	0
14:56:09	176.0000	362.0000	0
14:56:09	176.0000	335.0000	0
14:56:09	172.0000	320.0000	0
14:56:09	176.0000	309.0000	0
14:56:09	172.0000	294.0000	0
14:56:09	176.0000	413.0000	0
14:56:09	174.0000	373.0000	0
14:56:09	176.0000	352.0000	0
14:56:09	177.0000	333.0000	0
14:56:09	176.0000	317.0000	0
14:56:10	176.0000	309.0000	0
14:56:10	168.0000	403.0000	0
14:56:10	177.0000	379.0000	0
14:56:10	183.0000	355.0000	0
14:56:10	182.0000	332.0000	0
14:56:10	195.0000	323.0000	0
14:56:10	193.0000	312.0000	0
14:56:10	198.0000	410.0000	0
14:56:10	195.0000	383.0000	0
14:56:10	208.0000	366.0000	0
14:56:10	213.0000	342.0000	0
14:56:10	199.0000	320.0000	0
14:56:10	208.0000	318.0000	0
14:56:10	213.0000	410.0000	0
14:56:10	217.0000	384.0000	0
14:56:10	225.0000	351.0000	0
14:56:10	239.0000	351.0000	0
14:56:10	240.0000	333.0000	0
14:56:10	221.0000	314.0000	0
14:56:10	236.0000	313.0000	0
14:56:10	234.0000	413.0000	0
14:56:10	240.0000	384.0000	0
14:56:10	250.0000	363.0000	0
14:56:10	256.0000	346.0000	0
14:56:10	253.0000	336.0000	0
14:56:10	249.0000	322.0000	0
14:56:10	254.0000	424.0000	0
14:56:10	252.0000	386.0000	0
14:56:10	261.0000	368.0000	0
14:56:10	263.0000	350.0000	0
14:56:10	266.0000	336.0000	0
14:56:10	258.0000	325.0000	0
14:56:10	253.0000	413.0000	0
14:56:10	258.0000	398.0000	0
14:56:10	269.0000	369.0000	0
14:56:10	272.0000	347.0000	0
14:56:10	265.0000	332.0000	0
14:56:10	256.0000	326.0000	0
14:56:10	258.0000	416.0000	0
14:56:10	255.0000	382.0000	0
14:56:10	272.0000	375.0000	0
14:56:10	272.0000	349.0000	0
14:56:10	272.0000	340.0000	0
14:56:10	269.0000	316.0000	0
14:56:10	261.0000	415.0000	0
14:56:10	260.0000	387.0000	0
14:56:10	272.0000	362.0000	0
14:56:10	277.0000	361.0000	0
14:56:10	287.0000	339.0000	0
14:56:10	277.0000	336.0000	0
14:56:10	272.0000	421.0000	0
14:56:10	267.0000	389.0000	0
14:56:10	274.0000	369.0000	0
14:56:10	282.0000	346.0000	0
14:56:10	286.0000	346.0000	0
14:56:10	279.0000	331.0000	0
14:56:10	277.0000	321.0000	0
14:56:10	272.0000	418.0000	0
14:56:10	275.0000	391.0000	0
14:56:10	288.0000	368.0000	0
14:56:10	291.0000	357.0000	0
14:56:10	287.0000	349.0000	0
14:56:10	284.0000	334.0000	0
14:56:10	272.0000	423.0000	0
14:56:10	272.0000	391.0000	0
14:56:10	284.0000	370.0000	0
14:56:10	289.0000	357.0000	0
14:56:10	287.0000	342.0000	0
14:56:10	284.0000	342.0000	0
14:56:10	272.0000	427.0000	0
14:56:10	272.0000	386.0000	0
14:56:10	285.0000	372.0000	0
14:56:10	293.0000	357.0000	0
14:56:10	291.0000	349.0000	0
14:56:10	282.0000	325.0000	0
14:56:10	291.0000	331.0000	0
14:56:10	277.0000	418.0000	0
14:56:10	282.0000	380.0000	0
14:56:10	299.0000	369.0000	0
14:56:10	297.0000	355.0000	0
14:56:10	283.0000	343.0000	0
14:56:10	284.0000	325.0000	0
14:56:10	276.0000	419.0000	0
14:56:10	279.0000	396.0000	0
14:56:10	289.0000	368.0000	0
14:56:10	293.0000	367.0000	0
14:56:10	288.0000	336.0000	0
14:56:10	292.0000	337.0000	0
14:56:10	278.0000	424.0000	0
14:56:10	286.0000	399.0000	0
14:56:10	294.0000	373.0000	0
14:56:10	304.0000	357.0000	0
14:56:10	298.0000	353.0000	0
14:56:10	294.0000	336.0000	0
14:56:10	284.0000	421.0000	0
14:56:10	283.0000	394.0000	0
14:56:10	293.0000	369.0000	0
14:56:10	301.0000	361.0000	0
14:56:10	293.0000	343.0000	0
14:56:10	291.0000	334.0000	0
14:56:10	275.0000	423.0000	0
14:56:10	272.0000	385.0000	0
14:56:10	289.0000	374.0000	0
14:56:10	296.0000	355.0000	0
14:56:10	293.0000	345.0000	0
14:56:10	288.0000	326.0000	0
14:56:10	288.0000	325.0000	0
14:56:10	274.0000	419.0000	0
14:56:10	284.0000	390.0000	0
14:56:10	291.0000	369.0000	0
14:56:10	299.0000	354.0000	0
14:56:10	288.0000	343.0000	0
14:56:10	286.0000	329.0000	0
14:56:10	272.0000	419.0000	0
14:56:10	280.0000	395.0000	0
14:56:10	298.0000	372.0000	0
14:56:10	300.0000	357.0000	0
14:56:10	294.0000	345.0000	0
14:56:10	294.0000	343.0000	0
14:56:10	283.0000	423.0000	0
14:56:10	286.0000	396.0000	0
14:56:10	297.0000	373.0000	0
14:56:10	314.0000	360.0000	0
14:56:10	291.0000	351.0000	0
14:56:10	286.0000	334.0000	0
14:56:10	285.0000	325.0000	0
14:56:10	284.0000	419.0000	0
14:56:10	301.0000	393.0000	0
14:56:10	299.0000	370.0000	0
14:56:10	298.0000	354.0000	0
14:56:10	281.0000	350.0000	0
14:56:10	294.0000	331.0000	0
14:56:10	288.0000	425.0000	0
14:56:10	297.0000	395.0000	0
14:56:10	301.0000	375.0000	0
14:56:10	301.0000	366.0000	0
14:56:10	293.0000	337.0000	0
14:56:10	304.0000	342.0000	0
14:56:10	279.0000	419.0000	0
14:56:10	289.0000	387.0000	0
14:56:10	302.0000	373.0000	0
14:56:10	302.0000	356.0000	0
14:56:10	297.0000	353.0000	0
14:56:10	294.0000	326.0000	0
14:56:10	275.0000	418.0000	0
14:56:10	287.0000	396.0000	0
14:56:10	298.0000	372.0000	0
14:56:10	303.0000	362.0000	0
14:56:10	295.0000	344.0000	0
14:56:10	279.0000	339.0000	0
14:56:10	283.0000	422.0000	0
14:56:10	291.0000	396.0000	0
14:56:10	303.0000	373.0000	0
14:56:10	304.0000	352.0000	0
14:56:10	304.0000	346.0000	0
14:56:10	295.0000	337.0000	0
14:56:10	298.0000	331.0000	0
14:56:10	286.0000	420.0000	0
14:56:10	293.0000	393.0000	0
14:56:10	304.0000	373.0000	0
14:56:10	298.0000	351.0000	0
14:56:10	291.0000	342.0000	0
14:56:10	295.0000	335.0000	0
14:56:10	278.0000	421.0000	0
14:56:10	285.0000	395.0000	0
14:56:10	293.0000	373.0000	0
14:56:10	295.0000	358.0000	0
14:56:10	294.0000	345.0000	0
14:56:10	291.0000	335.0000	0
14:56:10	277.0000	425.0000	0
14:56:10	283.0000	386.0000	0
14:56:10	297.0000	381.0000	0
14:56:10	289.0000	355.0000	0
14:56:10	288.0000	344.0000	0
14:56:10	283.0000	327.0000	0
14:56:10	276.0000	426.0000	0
14:56:10	271.0000	387.0000	0
14:56:10	289.0000	368.0000	0
14:56:10	300.0000	353.0000	0
14:56:10	289.0000	342.0000	0
14:56:10	291.0000	336.0000	0
14:56:10	297.0000	317.0000	0
14:56:10	270.0000	416.0000	0
14:56:10	275.0000	398.0000	0
14:56:10	294.0000	373.0000	0
14:56:10	286.0000	356.0000	0
14:56:10	283.0000	343.0000	0
14:56:10	288.0000	337.0000	0
14:56:10	272.0000	422.0000	0
14:56:10	288.0000	394.0000	0
14:56:10	291.0000	373.0000	0
14:56:10	285.0000	350.0000	0
14:56:10	286.0000	344.0000	0
14:56:10	283.0000	336.0000	0
14:56:10	273.0000	423.0000	0
14:56:10	293.0000	389.0000	0
14:56:10	299.0000	371.0000	0
14:56:10	292.0000	359.0000	0
14:56:10	283.0000	336.0000	0
14:56:10	288.0000	336.0000	0
14:56:10	272.0000	424.0000	0
14:56:10	286.0000	395.0000	0
14:56:10	289.0000	370.0000	0
14:56:10	291.0000	354.0000	0
14:56:10	286.0000	345.0000	0
14:56:10	288.0000	336.0000	0
14:56:10	288.0000	324.0000	0
14:56:10	290.0000	420.0000	0
14:56:10	308.0000	400.0000	0
14:56:10	304.0000	368.0000	0
14:56:10	297.0000	360.0000	0
14:56:10	300.0000	346.0000	0
14:56:10	293.0000	325.0000	0
14:56:10	294.0000	432.0000	0
14:56:10	301.0000	398.0000	0
14:56:10	304.0000	375.0000	0
14:56:10	298.0000	368.0000	0
14:56:10	293.0000	347.0000	0
14:56:10	297.0000	334.0000	0
14:56:10	288.0000	426.0000	0
14:56:10	305.0000	400.0000	0
14:56:10	304.0000	375.0000	0
14:56:10	301.0000	358.0000	0
14:56:10	295.0000	347.0000	0
14:56:10	290.0000	333.0000	0
14:56:10	283.0000	425.0000	0
14:56:10	292.0000	395.0000	0
14:56:10	307.0000	384.0000	0
14:56:10	302.0000	364.0000	0
14:56:10	294.0000	345.0000	0
14:56:10	293.0000	335.0000	0
14:56:10	276.0000	427.0000	0
14:56:10	293.0000	398.0000	0
14:56:10	299.0000	368.0000	0
14:56:10	304.0000	363.0000	0
14:56:10	293.0000	343.0000	0
14:56:10	297.0000	338.0000	0
14:56:10	281.0000	423.0000	0
14:56:10	285.0000	399.0000	0
14:56:10	299.0000	373.0000	0
14:56:10	302.0000	358.0000	0
14:56:10	293.0000	350.0000	0
14:56:10	292.0000	336.0000	0
14:56:10	293.0000	330.0000	0
14:56:10	282.0000	419.0000	0
14:56:10	293.0000	393.0000	0
14:56:10	298.0000	368.0000	0
14:56:10	293.0000	356.0000	0
14:56:10	295.0000	352.0000	0
14:56:10	291.0000	334.0000	0
14:56:10	285.0000	414.0000	0
14:56:10	283.0000	395.0000	0
14:56:10	301.0000	372.0000	0
14:56:10	301.0000	365.0000	0
14:56:10	293.0000	336.0000	0
14:56:10	304.0000	338.0000	0
14:56:10	282.0000	424.0000	0
14:56:10	295.0000	393.0000	0
14:56:10	304.0000	374.0000	0
14:56:10	299.0000	359.0000	0
14:56:10	292.0000	352.0000	0
14:56:10	296.0000	327.0000	0
14:56:10	300.0000	335.0000	0
14:56:10	295.0000	422.0000	0
14:56:10	304.0000	391.0000	0
14:56:10	301.0000	375.0000	0
14:56:10	298.0000	357.0000	0
14:56:10	303.0000	351.0000	0
14:56:10	295.0000	326.0000	0
14:56:10	290.0000	420.0000	0
14:56:10	293.0000	395.0000	0
14:56:10	302.0000	374.0000	0
14:56:10	295.0000	368.0000	0
14:56:10	295.0000	343.0000	0
14:56:10	298.0000	336.0000	0
14:56:10	281.0000	423.0000	0
14:56:10	293.0000	397.0000	0
14:56:10	296.0000	371.0000	0
14:56:10	293.0000	363.0000	0
14:56:10	287.0000	350.0000	0
14:56:10	293.0000	336.0000	0
14:56:10	270.0000	407.0000	0
14:56:10	294.0000	394.0000	0
14:56:10	291.0000	368.0000	0
14:56:10	290.0000	356.0000	0
14:56:10	283.0000	336.0000	0
14:56:10	281.0000	337.0000	0
14:56:10	278.0000	422.0000	0
14:56:10	289.0000	392.0000	0
14:56:10	314.0000	374.0000	0
14:56:10	297.0000	356.0000	0
14:56:10	278.0000	345.0000	0
14:56:10	306.0000	334.0000	0
14:56:10	293.0000	331.0000	0
14:56:10	287.0000	420.0000	0
14:56:10	298.0000	391.0000	0
14:56:10	294.0000	370.0000	0
14:56:10	289.0000	358.0000	0
14:56:10	291.0000	342.0000	0
14:56:10	283.0000	324.0000	0
14:56:10	276.0000	417.0000	0
14:56:10	293.0000	396.0000	0
14:56:11	296.0000	368.0000	0
14:56:11	290.0000	359.0000	0
14:56:11	289.0000	346.0000	0
14:56:11	290.0000	340.0000	0
14:56:11	289.0000	422.0000	0
14:56:11	303.0000	394.0000	0
14:56:11	304.0000	373.0000	0
14:56:11	304.0000	359.0000	0
14:56:11	298.0000	345.0000	0
14:56:11	298.0000	335.0000	0
14:56:11	281.0000	430.0000	0
14:56:11	286.0000	397.0000	0
14:56:11	300.0000	371.0000	0
14:56:11	294.0000	359.0000	0
14:56:11	288.0000	342.0000	0
14:56:11	290.0000	332.0000	0
14:56:11	285.0000	423.0000	0
14:56:11	293.0000	397.0000	0
14:56:11	298.0000	372.0000	0
14:56:11	295.0000	368.0000	0
14:56:11	290.0000	336.0000	0
14:56:11	298.0000	332.0000	0
14:56:11	297.0000	424.0000	0
14:56:11	292.0000	398.0000	0
14:56:11	304.0000	381.0000	0
14:56:11	320.0000	358.0000	0
14:56:11	323.0000	343.0000	0
14:56:11	318.0000	336.0000	0
14:56:11	302.0000	414.0000	0
14:56:11	309.0000	398.0000	0
14:56:11	330.0000	379.0000	0
14:56:11	321.0000	364.0000	0
14:56:11	313.0000	336.0000	0
14:56:11	327.0000	345.0000	0
14:56:11	320.0000	422.0000	0
14:56:11	317.0000	390.0000	0
14:56:11	325.0000	379.0000	0
14:56:11	333.0000	364.0000	0
14:56:11	330.0000	358.0000	0
14:56:11	326.0000	331.0000	0
14:56:11	320.0000	422.0000	0
14:56:11	321.0000	400.0000	0
14:56:11	330.0000	369.0000	0
14:56:11	335.0000	366.0000	0
14:56:11	330.0000	352.0000	0
14:56:11	323.0000	347.0000	0
14:56:11	336.0000	430.0000	0
14:56:11	336.0000	400.0000	0
14:56:11	354.0000	383.0000	0
14:56:11	365.0000	368.0000	0
14:56:11	357.0000	353.0000	0
14:56:11	350.0000	344.0000	0
14:56:11	345.0000	336.0000	0
14:56:11	319.0000	432.0000	0
14:56:11	318.0000	398.0000	0
14:56:11	320.0000	382.0000	0
14:56:11	315.0000	358.0000	0
14:56:11	315.0000	349.0000	0
14:56:11	321.0000	336.0000	0
14:56:11	326.0000	423.0000	0
14:56:11	333.0000	396.0000	0
14:56:11	339.0000	377.0000	0
14:56:11	353.0000	368.0000	0
14:56:11	385.0000	351.0000	0
14:56:11	412.0000	347.0000	0
14:56:11	560.0000	443.0000	0
14:56:11	547.0000	426.0000	0
14:56:11	560.0000	410.0000	0
14:56:11	560.0000	397.0000	0
14:56:11	554.0000	385.0000	0
14:56:11	559.0000	371.0000	0
14:56:11	581.0000	375.0000	0
14:56:11	788.0000	464.0000	0
14:56:11	817.0000	454.0000	0
14:56:11	857.0000	443.0000	0
14:56:11	855.0000	437.0000	0
14:56:11	839.0000	434.0000	0
14:56:11	838.0000	425.0000	0
14:56:11	757.0000	486.0000	0
14:56:11	752.0000	470.0000	0
14:56:11	729.0000	453.0000	0
14:56:11	729.0000	443.0000	0
14:56:11	750.0000	437.0000	0
14:56:11	753.0000	427.0000	0
14:56:11	688.0000	482.0000	0
14:56:11	735.0000	464.0000	0
14:56:11	746.0000	448.0000	0
14:56:11	737.0000	435.0000	0
14:56:11	737.0000	431.0000	0
14:56:11	818.0000	429.0000	0
14:56:11	1069.0000	506.0000	0
14:56:11	1083.0000	490.0000	0
14:56:11	1066.0000	489.0000	0
14:56:11	1067.0000	485.0000	0
14:56:11	1054.0000	475.0000	0
14:56:11	1142.0000	482.0000	0
14:56:11	1519.0000	558.0000	0
14:56:11	1515.0000	560.0000	0
14:56:11	1524.0000	560.0000	0
14:56:11	1522.0000	574.0000	0
14:56:11	1516.0000	579.0000	0
14:56:11	1485.0000	573.0000	0
14:56:11	1298.0000	599.0000	0
14:56:11	1284.0000	581.0000	0
14:56:11	1255.0000	573.0000	0
14:56:11	1217.0000	562.0000	0
14:56:11	1181.0000	554.0000	0
14:56:11	1152.0000	543.0000	0
14:56:11	1215.0000	571.0000	0
14:56:11	1266.0000	570.0000	0
14:56:11	1296.0000	559.0000	0
14:56:11	1315.0000	560.0000	0
14:56:11	1319.0000	551.0000	0
14:56:11	1318.0000	550.0000	0
14:56:11	1392.0000	583.0000	0
14:56:11	1387.0000	578.0000	0
14:56:11	1410.0000	583.0000	0
14:56:11	1433.0000	576.0000	0
14:56:11	1425.0000	576.0000	0
14:56:11	1400.0000	575.0000	0
14:56:11	1295.0000	592.0000	0
14:56:11	1383.0000	586.0000	0
14:56:11	1470.0000	585.0000	0
14:56:11	1488.0000	592.0000	0
14:56:11	1471.0000	586.0000	0
14:56:11	1520.0000	592.0000	0
14:56:11	1343.0000	603.0000	0
14:56:11	1326.0000	592.0000	0
14:56:11	1307.0000	583.0000	0
14:56:11	1285.0000	576.0000	0
14:56:11	1310.0000	578.0000	0
14:56:11	1282.0000	561.0000	0
14:56:11	1209.0000	576.0000	0
14:56:11	1194.0000	567.0000	0
14:56:11	1170.0000	559.0000	0
14:56:11	1165.0000	557.0000	0
14:56:11	1139.0000	531.0000	0
14:56:11	1135.0000	535.0000	0
14:56:11	1085.0000	555.0000	0
14:56:11	1151.0000	537.0000	0
14:56:11	1212.0000	541.0000	0
14:56:11	1213.0000	537.0000	0
14:56:11	1333.0000	542.0000	0
14:56:11	1475.0000	541.0000	0
14:56:11	1856.0000	599.0000	0
14:56:11	1831.0000	615.0000	0
14:56:11	1799.0000	624.0000	0
14:56:11	1809.0000	647.0000	0
14:56:11	1820.0000	652.0000	0
14:56:11	1806.0000	657.0000	0
14:56:11	1833.0000	670.0000	0
14:56:11	1811.0000	673.0000	0
14:56:11	1778.0000	685.0000	0
14:56:11	1742.0000	678.0000	0
14:56:11	1717.0000	682.0000	0
14:56:11	1680.0000	671.0000	0
14:56:11	1583.0000	667.0000	0
14:56:11	1640.0000	661.0000	0
14:56:11	1691.0000	663.0000	0
14:56:11	1680.0000	660.0000	0
14:56:11	1719.0000	663.0000	0
14:56:11	1829.0000	682.0000	0
14:56:11	2333.0000	709.0000	0
14:56:11	2390.0000	726.0000	0
14:56:11	2349.0000	758.0000	0
14:56:11	2331.0000	784.0000	0
14:56:11	2346.0000	797.0000	0
14:56:11	2416.0000	816.0000	0
14:56:11	2155.0000	792.0000	0
14:56:11	2127.0000	800.0000	0
14:56:11	2139.0000	797.0000	0
14:56:11	2183.0000	814.0000	2
14:56:11	2247.0000	821.0000	0
14:56:11	2227.0000	836.0000	6
14:56:11	2256.0000	810.0000	0
14:56:11	2267.0000	819.0000	0
14:56:11	2278.0000	833.0000	2
14:56:11	2224.0000	835.0000	0
14:56:11	2196.0000	840.0000	6
14:56:11	2203.0000	848.0000	0
14:56:11	2480.0000	839.0000	0
14:56:11	2436.0000	855.0000	0
14:56:11	2400.0000	866.0000	0
14:56:11	2450.0000	884.0000	9
14:56:11	2601.0000	899.0000	0
14:56:11	2534.0000	909.0000	16
14:56:11	2934.0000	922.0000	0
14:56:11	2929.0000	958.0000	2
14:56:11	2901.0000	976.0000	14
14:56:11	2906.0000	1008.0000	13
14:56:11	2896.0000	1027.0000	16
14:56:11	2960.0000	1048.0000	16
14:56:11	3725.0000	1073.0000	0
14:56:11	3702.0000	1112.0000	21
14:56:11	3719.0000	1143.0000	33
14:56:11	3710.0000	1178.0000	38
14:56:11	3705.0000	1209.0000	42
14:56:11	3705.0000	1240.0000	46
14:56:11	3703.0000	1251.0000	0
14:56:11	3711.0000	1259.0000	18
14:56:11	3711.0000	1277.0000	36
14:56:11	3701.0000	1306.0000	29
14:56:11	3713.0000	1327.0000	46
14:56:11	3716.0000	1341.0000	45
14:56:11	3722.0000	1338.0000	6
14:56:11	3696.0000	1336.0000	23
14:56:11	3717.0000	1352.0000	35
14:56:11	3721.0000	1372.0000	48
14:56:11	3742.0000	1379.0000	43
14:56:11	3723.0000	1363.0000	5
14:56:11	3725.0000	1364.0000	23
14:56:11	3719.0000	1371.0000	36
14:56:11	3726.0000	1388.0000	48
14:56:11	3717.0000	1397.0000	48
14:56:11	3728.0000	1419.0000	34
14:56:11	3725.0000	1379.0000	15
14:56:11	3761.0000	1386.0000	27
14:56:11	3727.0000	1392.0000	30
14:56:11	3716.0000	1398.0000	45
14:56:11	3745.0000	1403.0000	49
14:56:11	3694.0000	1411.0000	55
14:56:11	3721.0000	1405.0000	9
14:56:11	3731.0000	1389.0000	29
14:56:11	3744.0000	1406.0000	43
14:56:11	3728.0000	1413.0000	37
14:56:11	3751.0000	1424.0000	48
14:56:11	3717.0000	1404.0000	7
14:56:11	3722.0000	1390.0000	42
14:56:11	3717.0000	1396.0000	48
14:56:11	3728.0000	1417.0000	52
14:56:11	3717.0000	1414.0000	59
14:56:11	3719.0000	1421.0000	56
14:56:11	3725.0000	1414.0000	3
14:56:11	3710.0000	1403.0000	36
14:56:11	3728.0000	1411.0000	43
14:56:11	3701.0000	1401.0000	51
14:56:11	3719.0000	1415.0000	55
14:56:11	3717.0000	1426.0000	55
14:56:11	3715.0000	1414.0000	10
14:56:11	3750.0000	1405.0000	36
14:56:11	3725.0000	1406.0000	50
14:56:11	3731.0000	1414.0000	49
14:56:11	3735.0000	1427.0000	66
14:56:11	3718.0000	1410.0000	11
14:56:11	3705.0000	1404.0000	33
14:56:11	3717.0000	1408.0000	42
14:56:11	3729.0000	1418.0000	48
14:56:11	3716.0000	1425.0000	48
14:56:11	3696.0000	1430.0000	43
14:56:11	3735.0000	1426.0000	1
14:56:11	3721.0000	1407.0000	31
14:56:11	3709.0000	1413.0000	32
14:56:11	3713.0000	1423.0000	47
14:56:11	3713.0000	1432.0000	48
14:56:11	3717.0000	1426.0000	55
14:56:11	3724.0000	1420.0000	7
14:56:11	3729.0000	1414.0000	37
14:56:12	3722.0000	1410.0000	43
14:56:12	3701.0000	1421.0000	38
14:56:12	3716.0000	1437.0000	54
14:56:12	3718.0000	1418.0000	6
14:56:12	3724.0000	1414.0000	30
14:56:12	3721.0000	1408.0000	43
14:56:12	3719.0000	1417.0000	48
14:56:12	3674.0000	1425.0000	50
14:56:12	3717.0000	1436.0000	51
14:56:12	3722.0000	1426.0000	1
14:56:12	3717.0000	1416.0000	30
14:56:12	3664.0000	1419.0000	34
14:56:12	3722.0000	1424.0000	51
14:56:12	3719.0000	1434.0000	48
14:56:12	3722.0000	1437.0000	55
14:56:12	3726.0000	1426.0000	5
14:56:12	3699.0000	1412.0000	31
14:56:12	3718.0000	1414.0000	47
14:56:12	3718.0000	1427.0000	46
14:56:12	3733.0000	1435.0000	48
14:56:12	3723.0000	1417.0000	5
14:56:12	3727.0000	1406.0000	33
14:56:12	3726.0000	1412.0000	48
14:56:12	3728.0000	1422.0000	46
14:56:12	3724.0000	1429.0000	49
14:56:12	3707.0000	1437.0000	49
14:56:12	3715.0000	1420.0000	5
14:56:12	3725.0000	1415.0000	27
14:56:12	3703.0000	1411.0000	35
14:56:12	3715.0000	1417.0000	55
14:56:12	3722.0000	1425.0000	54
14:56:12	3728.0000	1444.0000	48
14:56:12	3728.0000	1418.0000	13
14:56:12	3726.0000	1418.0000	27
14:56:12	3728.0000	1421.0000	27
14:56:12	3713.0000	1424.0000	45
14:56:12	3730.0000	1439.0000	48
14:56:12	3728.0000	1417.0000	6
14:56:12	3706.0000	1415.0000	29
14:56:12	3714.0000	1415.0000	48
14:56:12	3733.0000	1422.0000	46
14:56:12	3717.0000	1432.0000	48
14:56:12	3715.0000	1435.0000	49
14:56:12	3728.0000	1428.0000	9
14:56:12	3718.0000	1416.0000	36
14:56:12	3712.0000	1418.0000	36
14:56:12	3728.0000	1434.0000	48
14:56:12	3719.0000	1434.0000	55
14:56:12	3728.0000	1442.0000	45
14:56:12	3728.0000	1429.0000	4
14:56:12	3715.0000	1412.0000	29
14:56:12	3732.0000	1419.0000	32
14:56:12	3713.0000	1425.0000	45
14:56:12	3713.0000	1440.0000	48
14:56:12	3722.0000	1425.0000	6
14:56:12	3715.0000	1416.0000	29
14:56:12	3715.0000	1413.0000	43
14:56:12	3715.0000	1424.0000	48
14:56:12	3718.0000	1435.0000	48
14:56:12	3715.0000	1436.0000	55
14:56:12	3726.0000	1423.0000	6
14:56:12	3707.0000	1419.0000	21
14:56:12	3717.0000	1421.0000	46
14:56:12	3725.0000	1430.0000	43
14:56:12	3717.0000	1437.0000	49
14:56:12	3704.0000	1438.0000	43
14:56:12	3710.0000	1415.0000	11
14:56:12	3718.0000	1424.0000	32
14:56:12	3715.0000	1422.0000	32
14:56:12	3725.0000	1432.0000	51
14:56:12	3713.0000	1439.0000	48
14:56:12	3723.0000	1424.0000	0
14:56:12	3715.0000	1418.0000	27
14:56:12	3716.0000	1417.0000	39
14:56:12	3718.0000	1424.0000	45
14:56:12	3718.0000	1434.0000	48
14:56:12	3714.0000	1427.0000	63
14:56:12	3725.0000	1424.0000	9
14:56:12	3719.0000	1415.0000	30
14:56:12	3727.0000	1421.0000	53
14:56:12	3717.0000	1422.0000	48
14:56:12	3719.0000	1427.0000	58
14:56:12	3735.0000	1437.0000	46
14:56:12	3713.0000	1412.0000	11
14:56:12	3718.0000	1424.0000	33
14:56:12	3703.0000	1421.0000	35
14:56:12	3728.0000	1427.0000	54
14:56:12	3715.0000	1425.0000	55
14:56:12	3723.0000	1416.0000	11
14:56:12	3721.0000	1410.0000	39
14:56:12	3718.0000	1407.0000	52
14:56:12	3719.0000	1424.0000	57
14:56:12	3703.0000	1434.0000	45
14:56:12	3730.0000	1427.0000	62
14:56:12	3722.0000	1423.0000	10
14:56:12	3722.0000	1417.0000	32
14:56:12	3727.0000	1422.0000	49
14:56:12	3723.0000	1423.0000	48
14:56:12	3721.0000	1431.0000	58
14:56:12	3716.0000	1442.0000	52
14:56:12	3723.0000	1418.0000	14
14:56:12	3726.0000	1422.0000	30
14:56:12	3701.0000	1416.0000	41
14:56:12	3723.0000	1413.0000	60
14:56:12	3723.0000	1429.0000	53
14:56:12	3721.0000	1420.0000	5
14:56:12	3745.0000	1409.0000	32
14:56:12	3715.0000	1401.0000	48
14:56:12	3723.0000	1408.0000	53
14:56:12	3717.0000	1422.0000	60
14:56:12	3717.0000	1414.0000	68
14:56:12	3719.0000	1426.0000	10
14:56:12	3723.0000	1409.0000	38
14:56:12	3727.0000	1409.0000	64
14:56:12	3724.0000	1410.0000	64
14:56:12	3724.0000	1418.0000	66
14:56:12	3709.0000	1425.0000	55
14:56:12	3734.0000	1431.0000	4
14:56:12	3717.0000	1413.0000	43
14:56:12	3702.0000	1414.0000	45
14:56:12	3719.0000	1429.0000	49
14:56:12	3715.0000	1433.0000	52
14:56:12	3723.0000	1424.0000	7
14:56:12	3722.0000	1417.0000	29
14:56:12	3730.0000	1417.0000	45
14:56:12	3731.0000	1422.0000	48
14:56:12	3710.0000	1413.0000	51
14:56:12	3723.0000	1438.0000	59
14:56:12	3722.0000	1423.0000	5
14:56:12	3696.0000	1420.0000	32
14:56:12	3728.0000	1421.0000	39
14:56:12	3723.0000	1435.0000	47
14:56:12	3721.0000	1430.0000	52
14:56:12	3705.0000	1438.0000	46
14:56:12	3730.0000	1427.0000	3
14:56:12	3726.0000	1407.0000	31
14:56:12	3719.0000	1415.0000	46
14:56:12	3725.0000	1427.0000	48
14:56:12	3726.0000	1435.0000	49
14:56:12	3725.0000	1420.0000	6
14:56:12	3721.0000	1415.0000	28
14:56:12	3726.0000	1413.0000	42
14:56:12	3732.0000	1423.0000	46
14:56:12	3723.0000	1431.0000	52
14:56:12	3726.0000	1431.0000	58
14:56:12	3715.0000	1421.0000	10
14:56:12	3722.0000	1415.0000	34
14:56:12	3722.0000	1407.0000	53
14:56:12	3726.0000	1412.0000	61
14:56:12	3722.0000	1422.0000	64
14:56:12	3722.0000	1426.0000	65
14:56:12	3719.0000	1425.0000	1
14:56:12	3703.0000	1415.0000	29
14:56:12	3717.0000	1417.0000	46
14:56:12	3714.0000	1427.0000	47
14:56:12	3718.0000	1433.0000	48
14:56:12	3722.0000	1418.0000	6
14:56:12	3717.0000	1415.0000	28
14:56:12	3717.0000	1415.0000	39
14:56:12	3725.0000	1423.0000	48
14:56:12	3720.0000	1428.0000	51
14:56:12	3718.0000	1434.0000	57
14:56:12	3723.0000	1428.0000	3
14:56:12	3722.0000	1411.0000	37
14:56:12	3731.0000	1414.0000	43
14:56:12	3709.0000	1406.0000	59
14:56:12	3722.0000	1424.0000	58
14:56:12	3721.0000	1432.0000	60
14:56:12	3725.0000	1420.0000	16
14:56:12	3728.0000	1412.0000	38
14:56:12	3723.0000	1415.0000	48
14:56:12	3711.0000	1422.0000	49
14:56:12	3725.0000	1435.0000	59
14:56:12	3724.0000	1419.0000	2
14:56:12	3716.0000	1412.0000	25
14:56:12	3706.0000	1406.0000	46
14:56:12	3713.0000	1417.0000	57
14:56:12	3715.0000	1421.0000	66
14:56:12	3696.0000	1433.0000	50
14:56:12	3734.0000	1411.0000	16
14:56:12	3710.0000	1410.0000	38
14:56:12	3714.0000	1407.0000	51
14:56:12	3726.0000	1415.0000	66
14:56:12	3719.0000	1422.0000	64
14:56:12	3728.0000	1434.0000	64
14:56:12	3714.0000	1437.0000	7
14:56:12	3737.0000	1421.0000	30
14:56:12	3717.0000	1420.0000	43
14:56:12	3715.0000	1430.0000	41
14:56:12	3709.0000	1431.0000	48
14:56:12	3730.0000	1424.0000	7
14:56:12	3725.0000	1417.0000	31
14:56:12	3710.0000	1408.0000	48
14:56:12	3721.0000	1424.0000	50
14:56:12	3722.0000	1435.0000	58
14:56:12	3711.0000	1435.0000	43
14:56:12	3729.0000	1430.0000	6
14:56:12	3726.0000	1423.0000	29
14:56:12	3719.0000	1420.0000	46
14:56:12	3728.0000	1428.0000	49
14:56:12	3722.0000	1425.0000	55
14:56:12	3725.0000	1439.0000	64
14:56:12	3713.0000	1433.0000	3
14:56:12	3730.0000	1419.0000	36
14:56:12	3718.0000	1423.0000	46
14:56:12	3728.0000	1430.0000	41
14:56:12	3717.0000	1435.0000	53
14:56:12	3720.0000	1419.0000	10
14:56:12	3717.0000	1408.0000	40
14:56:12	3705.0000	1408.0000	50
14:56:12	3728.0000	1415.0000	51
14:56:12	3725.0000	1424.0000	62
14:56:12	3697.0000	1424.0000	58
14:56:12	3727.0000	1417.0000	15
14:56:12	3719.0000	1414.0000	30
14:56:12	3727.0000	1419.0000	47
14:56:12	3721.0000	1427.0000	50
14:56:12	3721.0000	1433.0000	50
14:56:12	3721.0000	1438.0000	55
14:56:12	3703.0000	1425.0000	0
14:56:12	3721.0000	1418.0000	36
14:56:12	3703.0000	1425.0000	33
14:56:12	3714.0000	1429.0000	49
14:56:12	3721.0000	1439.0000	48
14:56:12	3723.0000	1416.0000	4
14:56:12	3705.0000	1411.0000	30
14:56:12	3706.0000	1419.0000	38
14:56:12	3715.0000	1415.0000	54
14:56:12	3714.0000	1430.0000	58
14:56:12	3733.0000	1429.0000	48
14:56:12	3722.0000	1418.0000	23
14:56:12	3713.0000	1412.0000	43
14:56:12	3723.0000	1412.0000	53
14:56:12	3719.0000	1424.0000	51
14:56:12	3729.0000	1427.0000	53
14:56:12	3723.0000	1436.0000	50
14:56:12	3718.0000	1428.0000	6
14:56:12	3719.0000	1415.0000	38
14:56:12	3723.0000	1421.0000	47
14:56:12	3733.0000	1442.0000	43
14:56:12	3718.0000	1433.0000	55
14:56:12	3728.0000	1414.0000	10
14:56:12	3717.0000	1414.0000	35
14:56:12	3723.0000	1416.0000	47
14:56:12	3722.0000	1412.0000	60
14:56:12	3730.0000	1424.0000	58
14:56:12	3723.0000	1432.0000	60
14:56:12	3713.0000	1417.0000	5
14:56:12	3712.0000	1416.0000	32
14:56:12	3715.0000	1417.0000	42
14:56:12	3725.0000	1428.0000	50
14:56:12	3726.0000	1430.0000	62
14:56:12	3718.0000	1438.0000	57
14:56:12	3723.0000	1425.0000	7
14:56:12	3727.0000	1417.0000	36
14:56:12	3713.0000	1419.0000	48
14:56:12	3712.0000	1416.0000	53
14:56:12	3703.0000	1433.0000	48
14:56:12	3724.0000	1423.0000	14
14:56:12	3729.0000	1412.0000	32
14:56:12	3726.0000	1411.0000	53
14:56:12	3665.0000	1411.0000	63
14:56:12	3773.0000	1420.0000	60
14:56:12	3728.0000	1426.0000	64
14:56:12	3725.0000	1422.0000	10
14:56:12	3713.0000	1423.0000	36
14:56:12	3718.0000	1419.0000	43
14:56:12	3722.0000	1423.0000	53
14:56:12	3728.0000	1430.0000	54
14:56:12	3729.0000	1433.0000	62
14:56:12	3727.0000	1424.0000	8
14:56:12	3714.0000	1416.0000	38
14:56:12	3719.0000	1413.0000	57
14:56:13	3719.0000	1423.0000	55
14:56:13	3725.0000	1427.0000	70
14:56:13	3722.0000	1422.0000	7
14:56:13	3715.0000	1408.0000	33
14:56:13	3717.0000	1416.0000	43
14:56:13	3716.0000	1424.0000	50
14:56:13	3714.0000	1422.0000	57
14:56:13	3718.0000	1439.0000	49
14:56:13	3723.0000	1425.0000	8
14:56:13	3728.0000	1417.0000	42
14:56:13	3721.0000	1415.0000	48
14:56:13	3725.0000	1425.0000	54
14:56:13	3727.0000	1429.0000	54
14:56:13	3725.0000	1434.0000	69
14:56:13	3728.0000	1428.0000	11
14:56:13	3719.0000	1410.0000	37
14:56:13	3725.0000	1413.0000	54
14:56:13	3739.0000	1421.0000	58
14:56:13	3721.0000	1426.0000	64
14:56:13	3705.0000	1424.0000	0
14:56:13	3724.0000	1415.0000	31
14:56:13	3722.0000	1406.0000	50
14:56:13	3728.0000	1415.0000	59
14:56:13	3696.0000	1422.0000	49
14:56:13	3712.0000	1431.0000	53
14:56:13	3722.0000	1430.0000	9
14:56:13	3721.0000	1423.0000	30
14:56:13	3735.0000	1420.0000	46
14:56:13	3718.0000	1431.0000	48
14:56:13	3726.0000	1431.0000	58
14:56:13	3717.0000	1440.0000	51
14:56:13	3735.0000	1432.0000	6
14:56:13	3718.0000	1422.0000	30
14:56:13	3729.0000	1425.0000	36
14:56:13	3737.0000	1429.0000	48
14:56:13	3720.0000	1437.0000	50
14:56:13	3721.0000	1425.0000	7
14:56:13	3727.0000	1420.0000	31
14:56:13	3726.0000	1424.0000	39
14:56:13	3716.0000	1413.0000	55
14:56:13	3701.0000	1430.0000	65
14:56:13	3728.0000	1438.0000	61
14:56:13	3722.0000	1425.0000	10
14:56:13	3675.0000	1417.0000	37
14:56:13	3712.0000	1405.0000	54
14:56:13	3720.0000	1413.0000	58
14:56:13	3725.0000	1424.0000	61
14:56:13	3723.0000	1437.0000	61
14:56:13	3737.0000	1431.0000	2
14:56:13	3728.0000	1423.0000	34
14:56:13	3719.0000	1417.0000	48
14:56:13	3725.0000	1422.0000	61
14:56:13	3728.0000	1431.0000	59
14:56:13	3728.0000	1427.0000	9
14:56:13	3716.0000	1422.0000	31
14:56:13	3724.0000	1419.0000	49
14:56:13	3735.0000	1427.0000	48
14:56:13	3727.0000	1427.0000	60
14:56:13	3718.0000	1435.0000	58
14:56:13	3715.0000	1439.0000	11
14:56:13	3716.0000	1420.0000	33
14:56:13	3709.0000	1421.0000	41
14:56:13	3718.0000	1432.0000	53
14:56:13	3722.0000	1435.0000	55
14:56:13	3724.0000	1442.0000	59
14:56:13	3726.0000	1431.0000	9
14:56:13	3736.0000	1423.0000	33
14:56:13	3726.0000	1423.0000	48
14:56:13	3719.0000	1422.0000	54
14:56:13	3723.0000	1432.0000	57
14:56:13	3722.0000	1424.0000	7
14:56:13	3728.0000	1418.0000	33
14:56:13	3725.0000	1417.0000	48
14:56:13	3722.0000	1423.0000	61
14:56:13	3726.0000	1433.0000	57
14:56:13	3723.0000	1436.0000	59
14:56:13	3723.0000	1428.0000	13
14:56:13	3707.0000	766.0000	0
14:56:13	3719.0000	851.0000	0
14:56:13	3712.0000	910.0000	10
14:56:13	3712.0000	976.0000	9
14:56:13	3707.0000	1035.0000	13
14:56:13	3717.0000	1056.0000	0
14:56:13	3715.0000	1104.0000	10
14:56:13	3717.0000	1146.0000	17
14:56:13	3715.0000	1169.0000	35
14:56:13	3724.0000	1213.0000	29
14:56:13	3715.0000	1242.0000	33
14:56:13	3726.0000	1241.0000	11
14:56:13	3713.0000	1259.0000	23
14:56:13	3719.0000	1278.0000	42
14:56:13	3699.0000	1299.0000	32
14:56:13	3728.0000	1325.0000	43
14:56:13	3715.0000	1346.0000	43
14:56:13	3723.0000	1334.0000	9
14:56:13	3714.0000	1327.0000	42
14:56:13	3718.0000	1343.0000	46
14:56:13	3719.0000	1355.0000	58
14:56:13	3714.0000	1366.0000	55
14:56:13	3712.0000	1363.0000	6
14:56:13	3714.0000	1363.0000	30
14:56:13	3716.0000	1372.0000	42
14:56:13	3714.0000	1383.0000	46
14:56:13	3721.0000	1397.0000	49
14:56:13	3727.0000	1417.0000	45
14:56:13	3721.0000	1380.0000	12
14:56:13	3726.0000	1390.0000	30
14:56:13	3731.0000	1394.0000	30
14:56:13	3718.0000	1406.0000	48
14:56:13	3728.0000	1416.0000	52
14:56:13	3725.0000	1423.0000	51
14:56:13	3722.0000	1402.0000	9
14:56:13	3727.0000	1400.0000	33
14:56:13	3724.0000	1405.0000	47
14:56:13	3729.0000	1408.0000	39
14:56:13	3721.0000	1425.0000	48
14:56:13	3723.0000	1405.0000	9
14:56:13	3716.0000	1392.0000	30
14:56:13	3717.0000	1404.0000	43
14:56:13	3728.0000	1423.0000	49
14:56:13	3706.0000	1420.0000	50
14:56:13	3714.0000	1429.0000	53
14:56:13	3734.0000	1415.0000	7
14:56:13	3717.0000	1401.0000	34
14:56:13	3734.0000	1424.0000	38
14:56:13	3699.0000	1417.0000	48
14:56:13	3729.0000	1431.0000	49
14:56:13	3718.0000	1434.0000	50
14:56:13	3709.0000	1422.0000	0
14:56:13	3731.0000	1415.0000	32
14:56:13	3708.0000	1409.0000	44
14:56:13	3729.0000	1419.0000	38
14:56:13	3722.0000	1430.0000	50
14:56:13	3719.0000	1417.0000	10
14:56:13	3717.0000	1404.0000	34
14:56:13	3702.0000	1408.0000	37
14:56:13	3728.0000	1425.0000	48
14:56:13	3728.0000	1427.0000	48
14:56:13	3699.0000	1434.0000	49
14:56:13	3728.0000	1423.0000	5
14:56:13	3715.0000	1409.0000	29
14:56:13	3708.0000	1413.0000	43
14:56:13	3712.0000	1422.0000	48
14:56:13	3711.0000	1417.0000	51
14:56:13	3712.0000	1434.0000	50
14:56:13	3713.0000	1421.0000	9
14:56:13	3718.0000	1415.0000	38
14:56:13	3713.0000	1412.0000	47
14:56:13	3711.0000	1418.0000	50
14:56:13	3718.0000	1431.0000	59
14:56:13	3697.0000	1417.0000	5
14:56:13	3725.0000	1404.0000	29
14:56:13	3719.0000	1409.0000	44
14:56:13	3711.0000	1424.0000	48
14:56:13	3749.0000	1427.0000	48
14:56:13	3712.0000	1430.0000	49
14:56:13	3702.0000	1418.0000	7
14:56:13	3747.0000	1411.0000	33
14:56:13	3713.0000	1413.0000	48
14:56:13	3707.0000	1420.0000	54
14:56:13	3711.0000	1432.0000	51
14:56:13	3707.0000	1434.0000	61
14:56:13	3712.0000	1430.0000	6
14:56:13	3703.0000	1410.0000	31
14:56:13	3705.0000	1412.0000	42
14:56:13	3693.0000	1418.0000	39
14:56:13	3710.0000	1427.0000	55
14:56:13	3697.0000	1415.0000	9
14:56:13	3661.0000	1406.0000	30
14:56:13	3515.0000	1403.0000	32
14:56:13	3358.0000	1400.0000	46
14:56:13	3201.0000	1383.0000	51
14:56:13	3084.0000	1383.0000	39
14:56:13	2438.0000	1321.0000	0
14:56:13	2370.0000	1275.0000	16
14:56:13	2307.0000	1237.0000	20
14:56:13	2245.0000	1192.0000	27
14:56:13	2192.0000	1174.0000	22
14:56:13	2135.0000	1141.0000	21
14:56:13	1714.0000	1070.0000	0
14:56:13	1664.0000	1018.0000	0
14:56:13	1616.0000	976.0000	7
14:56:13	1571.0000	941.0000	5
14:56:13	1520.0000	906.0000	10
14:56:13	1474.0000	875.0000	3
14:56:13	1519.0000	812.0000	0
14:56:13	1491.0000	795.0000	0
14:56:13	1479.0000	768.0000	0
14:56:13	1471.0000	745.0000	0
14:56:13	1507.0000	720.0000	0
14:56:13	1623.0000	720.0000	0
14:56:13	1693.0000	715.0000	0
14:56:13	1670.0000	708.0000	0
14:56:13	1646.0000	700.0000	0
14:56:13	1626.0000	689.0000	0
14:56:13	1610.0000	687.0000	0
14:56:13	1588.0000	681.0000	0
14:56:13	1395.0000	669.0000	0
14:56:13	1355.0000	654.0000	0
14:56:13	1306.0000	627.0000	0
14:56:13	1278.0000	622.0000	0
14:56:13	1235.0000	609.0000	0
14:56:13	1193.0000	592.0000	0
14:56:13	1082.0000	590.0000	0
14:56:13	1104.0000	576.0000	0
14:56:13	1127.0000	567.0000	0
14:56:13	1170.0000	549.0000	0
14:56:13	1168.0000	549.0000	0
14:56:13	1187.0000	537.0000	0
14:56:13	1073.0000	570.0000	0
14:56:13	1044.0000	552.0000	0
14:56:13	1040.0000	541.0000	0
14:56:13	1023.0000	528.0000	0
14:56:13	1003.0000	501.0000	0
14:56:13	969.0000	502.0000	0
14:56:13	955.0000	544.0000	0
14:56:13	927.0000	528.0000	0
14:56:13	912.0000	506.0000	0
14:56:13	891.0000	499.0000	0
14:56:13	884.0000	480.0000	0
14:56:13	862.0000	463.0000	0
14:56:13	773.0000	528.0000	0
14:56:14	757.0000	493.0000	0
14:56:14	743.0000	481.0000	0
14:56:14	725.0000	451.0000	0
14:56:14	717.0000	446.0000	0
14:56:14	703.0000	432.0000	0
14:56:14	627.0000	490.0000	0
14:56:14	611.0000	464.0000	0
14:56:14	599.0000	447.0000	0
14:56:14	591.0000	430.0000	0
14:56:14	580.0000	416.0000	0
14:56:14	573.0000	411.0000	0
14:56:14	493.0000	464.0000	0
14:56:14	486.0000	434.0000	0
14:56:14	471.0000	427.0000	0
14:56:14	470.0000	406.0000	0
14:56:14	468.0000	397.0000	0
14:56:14	462.0000	369.0000	0
14:56:14	410.0000	450.0000	0
14:56:14	400.0000	428.0000	0
14:56:14	396.0000	399.0000	0
14:56:14	386.0000	386.0000	0
14:56:14	381.0000	369.0000	0
14:56:14	381.0000	368.0000	0
14:56:14	370.0000	341.0000	0
14:56:14	383.0000	440.0000	0
14:56:14	385.0000	415.0000	0
14:56:14	400.0000	385.0000	0
14:56:14	403.0000	385.0000	0
14:56:14	400.0000	368.0000	0
14:56:14	397.0000	365.0000	0
14:56:14	362.0000	439.0000	0
14:56:14	355.0000	414.0000	0
14:56:14	350.0000	393.0000	0
14:56:14	342.0000	368.0000	0
14:56:14	336.0000	367.0000	0
14:56:14	333.0000	350.0000	0
14:56:14	320.0000	433.0000	0
14:56:14	326.0000	406.0000	0
14:56:14	327.0000	384.0000	0
14:56:14	323.0000	368.0000	0
14:56:14	331.0000	355.0000	0
14:56:14	325.0000	350.0000	0
14:56:14	320.0000	432.0000	0
14:56:14	320.0000	403.0000	0
14:56:14	329.0000	384.0000	0
14:56:14	340.0000	368.0000	0
14:56:14	352.0000	360.0000	0
14:56:14	361.0000	337.0000	0
14:56:14	725.0000	448.0000	0
14:56:14	751.0000	436.0000	0
14:56:14	735.0000	429.0000	0
14:56:14	752.0000	426.0000	0
14:56:14	711.0000	414.0000	0
14:56:14	693.0000	410.0000	0
14:56:14	610.0000	474.0000	0
14:56:14	612.0000	458.0000	0
14:56:14	590.0000	432.0000	0
14:56:14	579.0000	412.0000	0
14:56:14	572.0000	411.0000	0
14:56:14	560.0000	395.0000	0
14:56:14	560.0000	385.0000	0
14:56:14	482.0000	459.0000	0
14:56:14	473.0000	442.0000	0
14:56:14	466.0000	414.0000	0
14:56:14	452.0000	390.0000	0
14:56:14	457.0000	384.0000	0
14:56:14	441.0000	371.0000	0
14:56:14	433.0000	451.0000	0
14:56:14	431.0000	422.0000	0
14:56:14	432.0000	402.0000	0
14:56:14	443.0000	390.0000	0
14:56:14	448.0000	374.0000	0
14:56:14	506.0000	368.0000	0
14:56:14	749.0000	464.0000	0
14:56:14	723.0000	448.0000	0
14:56:14	706.0000	431.0000	0
14:56:14	689.0000	427.0000	0
14:56:14	675.0000	413.0000	0
14:56:14	658.0000	400.0000	0
14:56:14	603.0000	481.0000	0
14:56:14	610.0000	450.0000	0
14:56:14	627.0000	432.0000	0
14:56:14	633.0000	417.0000	0
14:56:14	619.0000	414.0000	0
14:56:14	624.0000	400.0000	0
14:56:14	561.0000	464.0000	0
14:56:14	551.0000	442.0000	0
14:56:14	531.0000	427.0000	0
14:56:14	511.0000	407.0000	0
14:56:14	510.0000	388.0000	0
14:56:14	506.0000	395.0000	0
14:56:14	452.0000	454.0000	0
14:56:14	443.0000	430.0000	0
14:56:14	446.0000	406.0000	0
14:56:14	452.0000	395.0000	0
14:56:14	458.0000	384.0000	0
14:56:14	474.0000	365.0000	0
14:56:14	496.0000	365.0000	0
14:56:14	455.0000	447.0000	0
14:56:14	443.0000	422.0000	0
14:56:14	433.0000	406.0000	0
14:56:14	422.0000	385.0000	0
14:56:14	414.0000	377.0000	0
14:56:14	402.0000	353.0000	0
14:56:14	374.0000	439.0000	0
14:56:14	383.0000	412.0000	0
14:56:14	386.0000	386.0000	0
14:56:14	384.0000	385.0000	0
14:56:14	377.0000	365.0000	0
14:56:14	373.0000	361.0000	0
14:56:14	325.0000	434.0000	0
14:56:14	327.0000	413.0000	0
14:56:14	319.0000	384.0000	0
14:56:14	316.0000	368.0000	0
14:56:14	306.0000	361.0000	0
14:56:14	302.0000	338.0000	0
14:56:14	299.0000	332.0000	0
14:56:14	278.0000	425.0000	0
14:56:14	272.0000	397.0000	0
14:56:14	272.0000	383.0000	0
14:56:14	267.0000	355.0000	0
14:56:14	272.0000	351.0000	0
14:56:14	258.0000	329.0000	0
14:56:14	241.0000	423.0000	0
14:56:14	240.0000	393.0000	0
14:56:14	242.0000	369.0000	0
14:56:14	249.0000	351.0000	0
14:56:14	245.0000	336.0000	0
14:56:14	248.0000	331.0000	0
14:56:14	237.0000	415.0000	0
14:56:14	234.0000	381.0000	0
14:56:14	228.0000	367.0000	0
14:56:14	227.0000	347.0000	0
14:56:14	232.0000	337.0000	0
14:56:14	226.0000	311.0000	0
14:56:14	208.0000	411.0000	0
14:56:14	208.0000	387.0000	0
14:56:14	208.0000	361.0000	0
14:56:14	205.0000	342.0000	0
14:56:14	202.0000	329.0000	0
14:56:14	208.0000	321.0000	0
14:56:14	202.0000	300.0000	0
14:56:14	194.0000	407.0000	0
14:56:14	198.0000	387.0000	0
14:56:14	194.0000	350.0000	0
14:56:14	202.0000	343.0000	0
14:56:14	194.0000	325.0000	0
14:56:14	202.0000	320.0000	0
14:56:14	192.0000	411.0000	0
14:56:14	192.0000	381.0000	0
14:56:14	185.0000	357.0000	0
14:56:14	189.0000	337.0000	0
14:56:14	192.0000	332.0000	0
14:56:14	195.0000	310.0000	0
14:56:14	195.0000	414.0000	0
14:56:14	194.0000	384.0000	0
14:56:14	192.0000	367.0000	0
14:56:14	193.0000	339.0000	0
14:56:14	192.0000	319.0000	0
14:56:14	192.0000	320.0000	0
14:56:14	191.0000	413.0000	0
14:56:14	192.0000	382.0000	0
14:56:14	197.0000	358.0000	0
14:56:14	187.0000	337.0000	0
14:56:14	190.0000	326.0000	0
14:56:14	189.0000	304.0000	0
14:56:14	188.0000	407.0000	0
14:56:14	175.0000	383.0000	0
14:56:14	183.0000	359.0000	0
14:56:14	182.0000	337.0000	0
14:56:14	183.0000	325.0000	0
14:56:14	193.0000	311.0000	0
14:56:14	208.0000	298.0000	0
14:56:14	191.0000	403.0000	0
14:56:14	193.0000	381.0000	0
14:56:14	192.0000	351.0000	0
14:56:14	194.0000	337.0000	0
14:56:14	204.0000	324.0000	0
14:56:14	210.0000	320.0000	0
14:56:14	202.0000	413.0000	0
14:56:14	192.0000	379.0000	0
14:56:14	195.0000	359.0000	0
14:56:14	192.0000	333.0000	0
14:56:14	208.0000	326.0000	0
14:56:14	213.0000	319.0000	0
14:56:14	219.0000	410.0000	0
14:56:14	219.0000	386.0000	0
14:56:14	210.0000	361.0000	0
14:56:14	215.0000	346.0000	0
14:56:14	215.0000	330.0000	0
14:56:14	212.0000	320.0000	0
14:56:14	206.0000	417.0000	0
14:56:14	207.0000	393.0000	0
14:56:14	202.0000	355.0000	0
14:56:14	201.0000	343.0000	0
14:56:14	198.0000	331.0000	0
14:56:14	194.0000	306.0000	0
14:56:14	198.0000	422.0000	0
14:56:14	192.0000	384.0000	0
14:56:14	192.0000	366.0000	0
14:56:14	186.0000	346.0000	0
14:56:14	190.0000	325.0000	0
14:56:14	190.0000	311.0000	0
14:56:14	185.0000	295.0000	0
14:56:14	189.0000	415.0000	0
14:56:14	185.0000	375.0000	0
14:56:14	185.0000	347.0000	0
14:56:14	183.0000	336.0000	0
14:56:14	183.0000	320.0000	0
14:56:14	190.0000	312.0000	0
14:56:14	180.0000	412.0000	0
14:56:14	183.0000	379.0000	0
14:56:14	179.0000	361.0000	0
14:56:14	176.0000	329.0000	0
14:56:14	176.0000	321.0000	0
14:56:14	178.0000	309.0000	0
14:56:14	176.0000	413.0000	0
14:56:14	176.0000	383.0000	0
14:56:14	175.0000	357.0000	0
14:56:14	176.0000	336.0000	0
14:56:14	176.0000	321.0000	0
14:56:14	180.0000	307.0000	0
14:56:14	182.0000	412.0000	0
14:56:14	178.0000	378.0000	0
14:56:14	178.0000	362.0000	0
14:56:14	176.0000	336.0000	0
14:56:14	176.0000	321.0000	0
14:56:14	179.0000	306.0000	0
14:56:14	179.0000	413.0000	0
14:56:14	180.0000	381.0000	0
14:56:14	178.0000	355.0000	0
14:56:14	176.0000	336.0000	0
14:56:14	178.0000	329.0000	0
14:56:14	178.0000	307.0000	0
14:56:14	176.0000	402.0000	0
14:56:14	173.0000	380.0000	0
14:56:14	175.0000	355.0000	0
14:56:14	176.0000	336.0000	0
14:56:14	174.0000	323.0000	0
14:56:14	174.0000	308.0000	0
14:56:14	176.0000	404.0000	0
14:56:14	172.0000	372.0000	0
14:56:14	172.0000	353.0000	0
14:56:14	167.0000	335.0000	0
14:56:14	170.0000	330.0000	0
14:56:14	170.0000	304.0000	0
14:56:14	172.0000	402.0000	0
14:56:14	176.0000	382.0000	0
14:56:14	171.0000	349.0000	0
14:56:14	173.0000	336.0000	0
14:56:14	176.0000	322.0000	0
14:56:14	176.0000	307.0000	0
14:56:14	176.0000	298.0000	0
14:56:14	176.0000	400.0000	0
14:56:15	171.0000	376.0000	0
14:56:15	161.0000	353.0000	0
14:56:15	171.0000	342.0000	0
14:56:15	172.0000	320.0000	0
14:56:15	174.0000	314.0000	0
14:56:15	174.0000	407.0000	0
14:56:15	171.0000	378.0000	0
14:56:15	171.0000	353.0000	0
14:56:15	171.0000	336.0000	0
14:56:15	173.0000	330.0000	0
14:56:15	176.0000	306.0000	0
14:56:15	195.0000	410.0000	0
14:56:15	194.0000	377.0000	0
14:56:15	192.0000	355.0000	0
14:56:15	192.0000	336.0000	0
14:56:15	195.0000	326.0000	0
14:56:15	207.0000	317.0000	0
14:56:15	229.0000	412.0000	0
14:56:15	214.0000	375.0000	0
14:56:15	230.0000	364.0000	0
14:56:15	221.0000	342.0000	0
14:56:15	218.0000	331.0000	0
14:56:15	228.0000	313.0000	0
14:56:15	247.0000	421.0000	0
14:56:15	251.0000	386.0000	0
14:56:15	241.0000	370.0000	0
14:56:15	242.0000	349.0000	0
14:56:15	240.0000	332.0000	0
14:56:15	247.0000	323.0000	0
14:56:15	263.0000	306.0000	0
14:56:15	261.0000	414.0000	0
14:56:15	272.0000	394.0000	0
14:56:15	266.0000	368.0000	0
14:56:15	262.0000	351.0000	0
14:56:15	272.0000	337.0000	0
14:56:15	279.0000	336.0000	0
14:56:15	282.0000	419.0000	0
14:56:15	286.0000	390.0000	0
14:56:15	273.0000	370.0000	0
14:56:15	267.0000	345.0000	0
14:56:15	272.0000	339.0000	0
14:56:15	282.0000	340.0000	0
14:56:15	287.0000	418.0000	0
14:56:15	279.0000	394.0000	0
14:56:15	278.0000	373.0000	0
14:56:15	272.0000	355.0000	0
14:56:15	272.0000	340.0000	0
14:56:15	279.0000	335.0000	0
14:56:15	286.0000	426.0000	0
14:56:15	285.0000	401.0000	0
14:56:15	277.0000	368.0000	0
14:56:15	274.0000	355.0000	0
14:56:15	270.0000	338.0000	0
14:56:15	272.0000	322.0000	0
14:56:15	290.0000	431.0000	0
14:56:15	286.0000	394.0000	0
14:56:15	286.0000	379.0000	0
14:56:15	275.0000	358.0000	0
14:56:15	277.0000	346.0000	0
14:56:15	278.0000	333.0000	0
14:56:15	295.0000	425.0000	0
14:56:15	291.0000	396.0000	0
14:56:15	288.0000	375.0000	0
14:56:15	283.0000	358.0000	0
14:56:15	278.0000	341.0000	0
14:56:15	283.0000	339.0000	0
14:56:15	290.0000	324.0000	0
14:56:15	295.0000	413.0000	0
14:56:15	286.0000	400.0000	0
14:56:15	285.0000	372.0000	0
14:56:15	282.0000	362.0000	0
14:56:15	279.0000	346.0000	0
14:56:15	303.0000	334.0000	0
14:56:15	301.0000	423.0000	0
14:56:15	296.0000	395.0000	0
14:56:15	295.0000	383.0000	0
14:56:15	292.0000	357.0000	0
14:56:15	293.0000	351.0000	0
14:56:15	304.0000	325.0000	0
14:56:15	303.0000	424.0000	0
14:56:15	302.0000	399.0000	0
14:56:15	292.0000	375.0000	0
14:56:15	286.0000	368.0000	0
14:56:15	282.0000	341.0000	0
14:56:15	295.0000	338.0000	0
14:56:15	304.0000	423.0000	0
14:56:15	298.0000	397.0000	0
14:56:15	293.0000	374.0000	0
14:56:15	297.0000	359.0000	0
14:56:15	284.0000	352.0000	0
14:56:15	287.0000	335.0000	0
14:56:15	294.0000	423.0000	0
14:56:15	289.0000	385.0000	0
14:56:15	285.0000	370.0000	0
14:56:15	283.0000	355.0000	0
14:56:15	277.0000	342.0000	0
14:56:15	276.0000	337.0000	0
14:56:15	293.0000	322.0000	0
14:56:15	301.0000	419.0000	0
14:56:15	298.0000	392.0000	0
14:56:15	288.0000	370.0000	0
14:56:15	285.0000	355.0000	0
14:56:15	282.0000	341.0000	0
14:56:15	304.0000	337.0000	0
14:56:15	303.0000	423.0000	0
14:56:15	299.0000	397.0000	0
14:56:15	294.0000	373.0000	0
14:56:15	291.0000	357.0000	0
14:56:15	298.0000	351.0000	0
14:56:15	304.0000	326.0000	0
14:56:15	306.0000	418.0000	0
14:56:15	306.0000	399.0000	0
14:56:15	301.0000	368.0000	0
14:56:15	302.0000	362.0000	0
14:56:15	292.0000	349.0000	0
14:56:15	301.0000	341.0000	0
14:56:15	304.0000	429.0000	0
14:56:15	301.0000	398.0000	0
14:56:15	294.0000	377.0000	0
14:56:15	290.0000	359.0000	0
14:56:15	288.0000	346.0000	0
14:56:15	290.0000	336.0000	0
14:56:15	306.0000	431.0000	0
14:56:15	305.0000	405.0000	0
14:56:15	304.0000	375.0000	0
14:56:15	298.0000	363.0000	0
14:56:15	288.0000	336.0000	0
14:56:15	291.0000	336.0000	0
14:56:15	304.0000	426.0000	0
14:56:15	305.0000	399.0000	0
14:56:15	304.0000	375.0000	0
14:56:15	300.0000	359.0000	0
14:56:15	293.0000	345.0000	0
14:56:15	288.0000	326.0000	0
14:56:15	309.0000	329.0000	0
14:56:15	310.0000	422.0000	0
14:56:15	304.0000	399.0000	0
14:56:15	301.0000	371.0000	0
14:56:15	299.0000	362.0000	0
14:56:15	295.0000	343.0000	0
14:56:15	305.0000	335.0000	0
14:56:15	315.0000	432.0000	0
14:56:15	306.0000	400.0000	0
14:56:15	303.0000	381.0000	0
14:56:15	295.0000	364.0000	0
14:56:15	291.0000	345.0000	0
14:56:15	297.0000	336.0000	0
14:56:15	304.0000	422.0000	0
14:56:15	302.0000	403.0000	0
14:56:15	295.0000	374.0000	0
14:56:15	293.0000	362.0000	0
14:56:15	287.0000	338.0000	0
14:56:15	294.0000	336.0000	0
14:56:15	301.0000	426.0000	0
14:56:15	298.0000	398.0000	0
14:56:15	295.0000	381.0000	0
14:56:15	288.0000	358.0000	0
14:56:15	283.0000	345.0000	0
14:56:15	286.0000	334.0000	0
14:56:15	301.0000	419.0000	0
14:56:15	304.0000	397.0000	0
14:56:15	300.0000	368.0000	0
14:56:15	291.0000	368.0000	0
14:56:15	287.0000	346.0000	0
14:56:15	303.0000	338.0000	0
14:56:15	305.0000	423.0000	0
14:56:15	303.0000	395.0000	0
14:56:15	304.0000	373.0000	0
14:56:15	294.0000	351.0000	0
14:56:15	293.0000	345.0000	0
14:56:15	282.0000	334.0000	0
14:56:15	306.0000	421.0000	0
14:56:15	308.0000	401.0000	0
14:56:15	306.0000	377.0000	0
14:56:15	303.0000	362.0000	0
14:56:15	295.0000	336.0000	0
14:56:15	301.0000	337.0000	0
14:56:15	300.0000	330.0000	0
14:56:15	304.0000	423.0000	0
14:56:15	304.0000	393.0000	0
14:56:15	298.0000	371.0000	0
14:56:15	297.0000	359.0000	0
14:56:15	294.0000	337.0000	0
14:56:15	298.0000	335.0000	0
14:56:15	304.0000	426.0000	0
14:56:15	308.0000	400.0000	0
14:56:15	297.0000	384.0000	0
14:56:15	292.0000	357.0000	0
14:56:15	289.0000	346.0000	0
14:56:15	290.0000	335.0000	0
14:56:15	309.0000	431.0000	0
14:56:15	306.0000	398.0000	0
14:56:15	304.0000	373.0000	0
14:56:15	294.0000	361.0000	0
14:56:15	293.0000	343.0000	0
14:56:15	290.0000	336.0000	0
14:56:15	304.0000	325.0000	0
14:56:15	302.0000	418.0000	0
14:56:15	304.0000	395.0000	0
14:56:15	295.0000	365.0000	0
14:56:15	295.0000	358.0000	0
14:56:15	288.0000	345.0000	0
14:56:15	301.0000	336.0000	0
14:56:15	305.0000	427.0000	0
14:56:15	304.0000	396.0000	0
14:56:15	299.0000	375.0000	0
14:56:15	289.0000	350.0000	0
14:56:15	278.0000	343.0000	0
14:56:15	294.0000	336.0000	0
14:56:15	307.0000	423.0000	0
14:56:15	298.0000	398.0000	0
14:56:15	302.0000	376.0000	0
14:56:15	298.0000	362.0000	0
14:56:15	288.0000	337.0000	0
14:56:15	294.0000	336.0000	0
14:56:15	307.0000	427.0000	0
14:56:15	307.0000	400.0000	0
14:56:15	303.0000	369.0000	0
14:56:15	304.0000	361.0000	0
14:56:15	297.0000	347.0000	0
14:56:15	288.0000	333.0000	0
14:56:15	303.0000	332.0000	0
14:56:15	304.0000	422.0000	0
14:56:15	295.0000	395.0000	0
14:56:15	294.0000	371.0000	0
14:56:15	290.0000	357.0000	0
14:56:15	291.0000	342.0000	0
14:56:15	299.0000	336.0000	0
14:56:15	305.0000	432.0000	0
14:56:15	301.0000	397.0000	0
14:56:15	295.0000	378.0000	0
14:56:15	288.0000	358.0000	0
14:56:15	283.0000	340.0000	0
14:56:15	294.0000	334.0000	0
14:56:15	299.0000	416.0000	0
14:56:15	303.0000	402.0000	0
14:56:15	293.0000	373.0000	0
14:56:15	278.0000	357.0000	0
14:56:15	286.0000	338.0000	0
14:56:15	287.0000	335.0000	0
14:56:15	298.0000	326.0000	0
14:56:15	304.0000	422.0000	0
14:56:15	301.0000	393.0000	0
14:56:15	297.0000	370.0000	0
14:56:15	286.0000	350.0000	0
14:56:15	298.0000	345.0000	0
14:56:15	304.0000	335.0000	0
14:56:15	303.0000	422.0000	0
14:56:16	301.0000	399.0000	0
14:56:16	293.0000	375.0000	0
14:56:16	286.0000	359.0000	0
14:56:16	279.0000	332.0000	0
14:56:16	302.0000	336.0000	0
14:56:16	307.0000	428.0000	0
14:56:16	301.0000	400.0000	0
14:56:16	296.0000	377.0000	0
14:56:16	287.0000	362.0000	0
14:56:16	297.0000	346.0000	0
14:56:16	301.0000	332.0000	0
14:56:16	304.0000	433.0000	0
14:56:16	302.0000	398.0000	0
14:56:16	294.0000	377.0000	0
14:56:16	288.0000	362.0000	0
14:56:16	290.0000	343.0000	0
14:56:16	293.0000	337.0000	0
14:56:16	301.0000	427.0000	0
14:56:16	295.0000	395.0000	0
14:56:16	295.0000	374.0000	0
14:56:16	289.0000	358.0000	0
14:56:16	284.0000	345.0000	0
14:56:16	293.0000	342.0000	0
14:56:16	304.0000	428.0000	0
14:56:16	302.0000	397.0000	0
14:56:16	299.0000	378.0000	0
14:56:16	292.0000	364.0000	0
14:56:16	287.0000	353.0000	0
14:56:16	295.0000	325.0000	0
14:56:16	299.0000	424.0000	0
14:56:16	300.0000	400.0000	0
14:56:16	297.0000	368.0000	0
14:56:16	295.0000	362.0000	0
14:56:16	288.0000	346.0000	0
14:56:16	288.0000	341.0000	0
14:56:16	304.0000	423.0000	0
14:56:16	304.0000	403.0000	0
14:56:16	303.0000	378.0000	0
14:56:16	297.0000	351.0000	0
14:56:16	293.0000	346.0000	0
14:56:16	294.0000	335.0000	0
14:56:16	307.0000	426.0000	0
14:56:16	305.0000	400.0000	0
14:56:16	305.0000	377.0000	0
14:56:16	304.0000	362.0000	0
14:56:16	296.0000	338.0000	0
14:56:16	295.0000	339.0000	0
14:56:16	304.0000	336.0000	0
14:56:16	309.0000	418.0000	0
14:56:16	305.0000	397.0000	0
14:56:16	294.0000	371.0000	0
14:56:16	298.0000	366.0000	0
14:56:16	282.0000	346.0000	0
14:56:16	293.0000	336.0000	0
14:56:16	304.0000	426.0000	0
14:56:16	302.0000	399.0000	0
14:56:16	297.0000	378.0000	0
14:56:16	291.0000	359.0000	0
14:56:16	289.0000	349.0000	0
14:56:16	282.0000	326.0000	0
14:56:16	305.0000	431.0000	0
14:56:16	304.0000	395.0000	0
14:56:16	303.0000	368.0000	0
14:56:16	291.0000	366.0000	0
14:56:16	288.0000	341.0000	0
14:56:16	281.0000	335.0000	0
14:56:16	292.0000	320.0000	0
14:56:16	295.0000	418.0000	0
14:56:16	290.0000	394.0000	0
14:56:16	281.0000	366.0000	0
14:56:16	287.0000	357.0000	0
14:56:16	281.0000	339.0000	0
14:56:16	288.0000	334.0000	0
14:56:16	297.0000	422.0000	0
14:56:16	294.0000	397.0000	0
14:56:16	286.0000	377.0000	0
14:56:16	277.0000	352.0000	0
14:56:16	281.0000	349.0000	0
14:56:16	283.0000	336.0000	0
14:56:16	295.0000	425.0000	0
14:56:16	290.0000	394.0000	0
14:56:16	288.0000	373.0000	0
14:56:16	284.0000	358.0000	0
14:56:16	273.0000	336.0000	0
14:56:16	282.0000	334.0000	0
14:56:16	293.0000	330.0000	0
14:56:16	288.0000	419.0000	0
14:56:16	283.0000	394.0000	0
14:56:16	277.0000	369.0000	0
14:56:16	275.0000	355.0000	0
14:56:16	277.0000	340.0000	0
14:56:16	290.0000	332.0000	0
14:56:16	300.0000	425.0000	0
14:56:16	293.0000	397.0000	0
14:56:16	286.0000	379.0000	0
14:56:16	282.0000	358.0000	0
14:56:16	278.0000	342.0000	0
14:56:16	289.0000	333.0000	0
14:56:16	302.0000	427.0000	0
14:56:16	295.0000	400.0000	0
14:56:16	278.0000	366.0000	0
14:56:16	291.0000	359.0000	0
14:56:16	276.0000	338.0000	0
14:56:16	294.0000	333.0000	0
14:56:16	305.0000	319.0000	0
14:56:16	295.0000	419.0000	0
14:56:16	294.0000	386.0000	0
14:56:16	289.0000	367.0000	0
14:56:16	285.0000	356.0000	0
14:56:16	298.0000	342.0000	0
14:56:16	314.0000	339.0000	0
14:56:16	304.0000	427.0000	0
14:56:16	301.0000	400.0000	0
14:56:16	294.0000	375.0000	0
14:56:16	289.0000	363.0000	0
14:56:16	295.0000	352.0000	0
14:56:16	304.0000	336.0000	0
14:56:16	304.0000	426.0000	0
14:56:16	298.0000	400.0000	0
14:56:16	289.0000	373.0000	0
14:56:16	286.0000	355.0000	0
14:56:16	288.0000	347.0000	0
14:56:16	294.0000	334.0000	0
14:56:16	299.0000	426.0000	0
14:56:16	290.0000	395.0000	0
14:56:16	289.0000	375.0000	0
14:56:16	286.0000	356.0000	0
14:56:16	285.0000	345.0000	0
14:56:16	293.0000	336.0000	0
14:56:16	302.0000	430.0000	0
14:56:16	302.0000	398.0000	0
14:56:16	301.0000	384.0000	0
14:56:16	299.0000	359.0000	0
14:56:16	294.0000	346.0000	0
14:56:16	299.0000	336.0000	0
14:56:16	302.0000	419.0000	0
14:56:16	299.0000	401.0000	0
14:56:16	298.0000	379.0000	0
14:56:16	293.0000	365.0000	0
14:56:16	290.0000	348.0000	0
14:56:16	294.0000	336.0000	0
14:56:16	304.0000	423.0000	0
14:56:16	308.0000	402.0000	0
14:56:16	294.0000	368.0000	0
14:56:16	296.0000	367.0000	0
14:56:16	289.0000	359.0000	0
14:56:16	283.0000	326.0000	0
14:56:16	308.0000	329.0000	0
14:56:16	310.0000	422.0000	0
14:56:16	302.0000	395.0000	0
14:56:16	304.0000	368.0000	0
14:56:16	304.0000	359.0000	0
14:56:16	295.0000	345.0000	0
14:56:16	303.0000	325.0000	0
14:56:16	312.0000	432.0000	0
14:56:16	306.0000	400.0000	0
14:56:16	302.0000	375.0000	0
14:56:16	299.0000	359.0000	0
14:56:16	303.0000	345.0000	0
14:56:16	306.0000	335.0000	0
14:56:16	307.0000	423.0000	0
14:56:16	304.0000	407.0000	0
14:56:16	302.0000	376.0000	0
14:56:16	294.0000	359.0000	0
14:56:16	288.0000	345.0000	0
14:56:16	294.0000	335.0000	0
14:56:16	338.0000	432.0000	0
14:56:16	336.0000	391.0000	0
14:56:16	333.0000	386.0000	0
14:56:16	327.0000	366.0000	0
14:56:16	321.0000	357.0000	0
14:56:16	326.0000	336.0000	0
14:56:16	336.0000	334.0000	0
14:56:16	343.0000	428.0000	0
14:56:16	354.0000	401.0000	0
14:56:16	369.0000	388.0000	0
14:56:16	367.0000	368.0000	0
14:56:16	366.0000	352.0000	0
14:56:16	387.0000	346.0000	0
14:56:16	657.0000	446.0000	0
14:56:16	688.0000	432.0000	0
14:56:16	713.0000	418.0000	0
14:56:16	722.0000	426.0000	0
14:56:16	710.0000	413.0000	0
14:56:16	701.0000	403.0000	0
14:56:16	672.0000	469.0000	0
14:56:16	675.0000	452.0000	0
14:56:16	685.0000	444.0000	0
14:56:16	668.0000	418.0000	0
14:56:16	658.0000	426.0000	0
14:56:16	649.0000	406.0000	0
14:56:16	576.0000	467.0000	0
14:56:16	566.0000	438.0000	0
14:56:16	560.0000	430.0000	0
14:56:16	545.0000	410.0000	0
14:56:16	529.0000	390.0000	0
14:56:16	531.0000	395.0000	0
14:56:16	522.0000	460.0000	0
14:56:16	607.0000	437.0000	0
14:56:16	693.0000	432.0000	0
14:56:16	690.0000	422.0000	0
14:56:16	746.0000	417.0000	0
14:56:16	835.0000	417.0000	0
14:56:16	802.0000	486.0000	0
14:56:16	784.0000	459.0000	0
14:56:16	768.0000	463.0000	0
14:56:16	743.0000	434.0000	0
14:56:16	725.0000	432.0000	0
14:56:16	704.0000	420.0000	0
14:56:16	583.0000	477.0000	0
14:56:16	570.0000	460.0000	0
14:56:16	560.0000	433.0000	0
14:56:16	547.0000	421.0000	0
14:56:16	529.0000	404.0000	0
14:56:16	528.0000	400.0000	0
14:56:16	502.0000	460.0000	0
14:56:16	474.0000	426.0000	0
14:56:16	478.0000	418.0000	0
14:56:16	465.0000	398.0000	0
14:56:16	465.0000	385.0000	0
14:56:16	491.0000	376.0000	0
14:56:16	530.0000	455.0000	0
14:56:16	542.0000	432.0000	0
14:56:16	551.0000	415.0000	0
14:56:16	545.0000	403.0000	0
14:56:16	592.0000	396.0000	0
14:56:16	718.0000	397.0000	0
14:56:16	1085.0000	483.0000	0
14:56:16	1088.0000	486.0000	0
14:56:16	1114.0000	480.0000	0
14:56:16	1184.0000	476.0000	0
14:56:16	1226.0000	485.0000	0
14:56:16	1200.0000	489.0000	0
14:56:16	1022.0000	531.0000	0
14:56:16	994.0000	511.0000	0
14:56:16	973.0000	509.0000	0
14:56:16	944.0000	495.0000	0
14:56:16	930.0000	483.0000	0
14:56:16	911.0000	470.0000	0
14:56:16	740.0000	505.0000	0
14:56:16	723.0000	489.0000	0
14:56:16	710.0000	464.0000	0
14:56:16	689.0000	451.0000	0
14:56:16	682.0000	439.0000	0
14:56:16	669.0000	432.0000	0
14:56:16	635.0000	480.0000	0
14:56:16	649.0000	460.0000	0
14:56:16	678.0000	443.0000	0
14:56:16	693.0000	432.0000	0
14:56:16	691.0000	434.0000	0
14:56:16	682.0000	419.0000	0
14:56:16	768.0000	483.0000	0
14:56:16	823.0000	469.0000	0
14:56:16	897.0000	461.0000	0
14:56:16	965.0000	463.0000	0
14:56:16	965.0000	449.0000	0
14:56:16	962.0000	460.0000	0
14:56:16	1125.0000	511.0000	0
14:56:16	1120.0000	511.0000	0
14:56:16	1095.0000	507.0000	0
14:56:16	1067.0000	506.0000	0
14:56:16	1037.0000	494.0000	0
14:56:16	1015.0000	495.0000	0
14:56:16	959.0000	528.0000	0
14:56:16	960.0000	505.0000	0
14:56:16	949.0000	498.0000	0
14:56:16	926.0000	479.0000	0
14:56:16	917.0000	477.0000	0
14:56:16	912.0000	471.0000	0
14:56:16	862.0000	511.0000	0
14:56:16	854.0000	497.0000	0
14:56:16	833.0000	479.0000	0
14:56:16	817.0000	470.0000	0
14:56:16	799.0000	461.0000	0
14:56:16	781.0000	449.0000	0
14:56:16	845.0000	506.0000	0
14:56:16	858.0000	493.0000	0
14:56:16	845.0000	464.0000	0
14:56:16	868.0000	468.0000	0
14:56:16	893.0000	459.0000	0
14:56:16	917.0000	452.0000	0
14:56:16	964.0000	503.0000	0
14:56:16	939.0000	495.0000	0
14:56:16	927.0000	490.0000	0
14:56:16	959.0000	473.0000	0
14:56:16	1068.0000	481.0000	0
14:56:16	1150.0000	479.0000	0
14:56:16	1288.0000	540.0000	0
14:56:16	1280.0000	538.0000	0
14:56:16	1246.0000	534.0000	0
14:56:16	1211.0000	530.0000	0
14:56:16	1190.0000	511.0000	0
14:56:16	1171.0000	529.0000	0
14:56:16	970.0000	546.0000	0
14:56:16	963.0000	528.0000	0
14:56:16	958.0000	507.0000	0
14:56:16	953.0000	499.0000	0
14:56:16	942.0000	492.0000	0
14:56:16	916.0000	474.0000	0
14:56:16	761.0000	511.0000	0
14:56:16	730.0000	492.0000	0
14:56:17	713.0000	470.0000	0
14:56:17	692.0000	458.0000	0
14:56:17	684.0000	449.0000	0
14:56:17	667.0000	432.0000	0
14:56:17	699.0000	485.0000	0
14:56:17	704.0000	464.0000	0
14:56:17	761.0000	453.0000	0
14:56:17	835.0000	448.0000	0
14:56:17	862.0000	442.0000	0
14:56:17	851.0000	442.0000	0
14:56:17	1063.0000	503.0000	0
14:56:17	1023.0000	497.0000	0
14:56:17	3715.0000	759.0000	0
14:56:17	3715.0000	853.0000	0
14:56:17	3703.0000	913.0000	0
14:56:17	3713.0000	978.0000	13
14:56:17	3718.0000	1033.0000	17
14:56:17	3728.0000	1057.0000	0
14:56:17	3715.0000	1093.0000	12
14:56:17	3722.0000	1131.0000	29
14:56:17	3723.0000	1173.0000	30
14:56:17	3715.0000	1212.0000	33
14:56:17	3721.0000	1247.0000	33
14:56:17	3725.0000	1246.0000	1
14:56:17	3710.0000	1259.0000	20
14:56:17	3714.0000	1277.0000	33
14:56:17	3730.0000	1291.0000	46
14:56:17	3718.0000	1319.0000	42
14:56:17	3723.0000	1343.0000	43
14:56:17	3722.0000	1336.0000	3
14:56:17	3723.0000	1333.0000	25
14:56:17	3728.0000	1346.0000	35
14:56:17	3703.0000	1359.0000	44
14:56:17	3719.0000	1367.0000	53
14:56:17	3719.0000	1366.0000	4
14:56:17	3721.0000	1363.0000	27
14:56:17	3715.0000	1372.0000	37
14:56:17	3721.0000	1381.0000	48
14:56:17	3729.0000	1397.0000	53
14:56:17	3730.0000	1405.0000	49
14:56:17	3721.0000	1396.0000	1
14:56:17	3723.0000	1394.0000	29
14:56:17	3719.0000	1396.0000	39
14:56:17	3719.0000	1404.0000	46
14:56:17	3717.0000	1413.0000	49
14:56:17	3728.0000	1425.0000	56
14:56:17	3721.0000	1414.0000	6
14:56:17	3727.0000	1399.0000	31
14:56:17	3718.0000	1406.0000	47
14:56:17	3715.0000	1413.0000	48
14:56:17	3741.0000	1421.0000	55
14:56:17	3725.0000	1410.0000	5
14:56:17	3716.0000	1402.0000	27
14:56:17	3715.0000	1405.0000	41
14:56:17	3718.0000	1412.0000	43
14:56:17	3722.0000	1421.0000	51
14:56:17	3719.0000	1432.0000	59
14:56:17	3732.0000	1420.0000	0
14:56:17	3703.0000	1411.0000	18
14:56:17	3730.0000	1413.0000	40
14:56:17	3724.0000	1420.0000	44
14:56:17	3731.0000	1429.0000	38
14:56:17	3727.0000	1437.0000	46
14:56:17	3726.0000	1422.0000	7
14:56:17	3725.0000	1414.0000	33
14:56:17	3703.0000	1421.0000	39
14:56:17	3729.0000	1432.0000	42
14:56:17	3703.0000	1430.0000	38
14:56:17	3727.0000	1419.0000	3
14:56:17	3722.0000	1408.0000	37
14:56:17	3715.0000	1413.0000	41
14:56:17	3722.0000	1427.0000	43
14:56:17	3709.0000	1422.0000	58
14:56:17	3726.0000	1429.0000	54
14:56:17	3726.0000	1424.0000	7
14:56:17	3734.0000	1413.0000	32
14:56:17	3731.0000	1415.0000	47
14:56:17	3748.0000	1421.0000	49
14:56:17	3723.0000	1427.0000	48
14:56:17	3719.0000	1428.0000	56
14:56:17	3718.0000	1418.0000	1
14:56:17	3725.0000	1411.0000	30
14:56:17	3723.0000	1415.0000	37
14:56:17	3727.0000	1421.0000	45
14:56:17	3722.0000	1431.0000	48
14:56:17	3712.0000	1413.0000	0
14:56:17	3710.0000	1406.0000	26
14:56:17	3719.0000	1412.0000	40
14:56:17	3729.0000	1434.0000	34
14:56:17	3714.0000	1416.0000	49
14:56:17	3715.0000	1434.0000	48
14:56:17	3725.0000	1420.0000	6
14:56:17	3716.0000	1409.0000	28
14:56:17	3733.0000	1414.0000	43
14:56:17	3720.0000	1422.0000	48
14:56:17	3706.0000	1426.0000	43
14:56:17	3726.0000	1440.0000	58
14:56:17	3729.0000	1420.0000	7
14:56:17	3720.0000	1410.0000	35
14:56:17	3708.0000	1408.0000	49
14:56:17	3726.0000	1407.0000	54
14:56:17	3718.0000	1415.0000	61
14:56:17	3725.0000	1407.0000	15
14:56:17	3741.0000	1403.0000	34
14:56:17	3719.0000	1410.0000	46
14:56:17	3707.0000	1399.0000	51
14:56:17	3721.0000	1423.0000	55
14:56:17	3721.0000	1432.0000	50
14:56:17	3723.0000	1416.0000	7
14:56:17	3745.0000	1411.0000	30
14:56:17	3718.0000	1409.0000	42
14:56:17	3719.0000	1420.0000	47
14:56:17	3723.0000	1434.0000	47
14:56:17	3724.0000	1430.0000	54
14:56:17	3728.0000	1419.0000	7
14:56:17	3719.0000	1415.0000	27
14:56:17	3719.0000	1415.0000	42
14:56:17	3722.0000	1428.0000	48
14:56:17	3726.0000	1432.0000	50
14:56:17	3719.0000	1416.0000	8
14:56:17	3730.0000	1405.0000	28
14:56:17	3717.0000	1412.0000	41
14:56:17	3715.0000	1415.0000	48
14:56:17	3719.0000	1426.0000	55
14:56:17	3717.0000	1424.0000	48
14:56:17	3735.0000	1430.0000	0
14:56:17	3704.0000	1417.0000	31
14:56:17	3733.0000	1415.0000	41
14:56:17	3723.0000	1422.0000	47
14:56:17	3703.0000	1431.0000	39
14:56:17	3719.0000	1438.0000	58
14:56:17	3726.0000	1424.0000	7
14:56:17	3711.0000	1432.0000	19
14:56:17	3708.0000	1421.0000	32
14:56:17	3728.0000	1424.0000	48
14:56:17	3723.0000	1436.0000	47
14:56:17	3725.0000	1419.0000	6
14:56:17	3741.0000	1408.0000	30
14:56:17	3715.0000	1411.0000	41
14:56:17	3712.0000	1421.0000	46
14:56:17	3715.0000	1430.0000	46
14:56:17	3723.0000	1433.0000	48
14:56:17	3727.0000	1416.0000	7
14:56:17	3728.0000	1412.0000	28
14:56:17	3728.0000	1417.0000	44
14:56:17	3715.0000	1424.0000	48
14:56:17	3719.0000	1430.0000	48
14:56:17	3725.0000	1428.0000	57
14:56:17	3724.0000	1417.0000	9
14:56:17	3705.0000	1415.0000	27
14:56:17	3722.0000	1410.0000	47
14:56:17	3717.0000	1418.0000	49
14:56:17	3717.0000	1421.0000	48
14:56:17	3727.0000	1417.0000	5
14:56:17	3729.0000	1404.0000	31
14:56:17	3715.0000	1412.0000	39
14:56:17	3727.0000	1415.0000	48
14:56:17	3717.0000	1429.0000	48
14:56:17	3718.0000	1439.0000	48
14:56:17	3737.0000	1431.0000	0
14:56:17	3702.0000	1419.0000	31
14:56:17	3729.0000	1416.0000	34
14:56:17	3718.0000	1426.0000	46
14:56:17	3707.0000	1429.0000	39
14:56:17	3719.0000	1441.0000	55
14:56:17	3727.0000	1422.0000	5
14:56:17	3707.0000	1417.0000	18
14:56:17	3710.0000	1414.0000	30
14:56:17	3718.0000	1421.0000	48
14:56:17	3725.0000	1435.0000	47
14:56:17	3722.0000	1416.0000	6
14:56:17	3728.0000	1408.0000	27
14:56:17	3721.0000	1411.0000	39
14:56:17	3709.0000	1408.0000	47
14:56:17	3723.0000	1431.0000	51
14:56:17	3725.0000	1435.0000	48
14:56:17	3726.0000	1420.0000	5
14:56:17	3719.0000	1407.0000	27
14:56:17	3722.0000	1419.0000	37
14:56:17	3721.0000	1419.0000	44
14:56:17	3723.0000	1431.0000	48
14:56:17	3716.0000	1437.0000	48
14:56:17	3727.0000	1415.0000	16
14:56:17	3725.0000	1404.0000	38
14:56:17	3717.0000	1411.0000	57
14:56:17	3729.0000	1418.0000	57
14:56:17	3731.0000	1440.0000	48
14:56:17	3722.0000	1423.0000	7
14:56:17	3694.0000	1406.0000	35
14:56:17	3717.0000	1403.0000	51
14:56:17	3710.0000	1409.0000	45
14:56:17	3737.0000	1424.0000	56
14:56:17	3726.0000	1429.0000	59
14:56:17	3724.0000	1419.0000	5
14:56:17	3723.0000	1407.0000	34
14:56:17	3721.0000	1418.0000	38
14:56:17	3730.0000	1424.0000	32
14:56:17	3710.0000	1431.0000	46
14:56:17	3733.0000	1440.0000	46
14:56:17	3725.0000	1422.0000	6
14:56:17	3723.0000	1410.0000	29
14:56:17	3721.0000	1417.0000	51
14:56:17	3723.0000	1421.0000	48
14:56:17	3719.0000	1430.0000	48
14:56:17	3723.0000	1419.0000	13
14:56:17	3728.0000	1404.0000	34
14:56:17	3727.0000	1409.0000	51
14:56:17	3709.0000	1410.0000	46
14:56:17	3734.0000	1423.0000	54
14:56:17	3718.0000	1426.0000	58
14:56:17	3725.0000	1418.0000	6
14:56:17	3725.0000	1416.0000	36
14:56:17	3725.0000	1408.0000	41
14:56:17	3719.0000	1415.0000	49
14:56:17	3722.0000	1422.0000	53
14:56:17	3728.0000	1430.0000	60
14:56:17	3724.0000	1421.0000	6
14:56:17	3722.0000	1413.0000	27
14:56:17	3722.0000	1419.0000	39
14:56:17	3727.0000	1431.0000	46
14:56:17	3730.0000	1445.0000	39
14:56:17	3719.0000	1408.0000	16
14:56:17	3728.0000	1404.0000	35
14:56:17	3732.0000	1408.0000	45
14:56:17	3705.0000	1398.0000	53
14:56:17	3728.0000	1429.0000	56
14:56:17	3721.0000	1427.0000	57
14:56:17	3723.0000	1416.0000	16
14:56:17	3718.0000	1400.0000	41
14:56:17	3741.0000	1415.0000	48
14:56:17	3735.0000	1423.0000	45
14:56:17	3705.0000	1425.0000	55
14:56:17	3735.0000	1440.0000	52
14:56:17	3723.0000	1428.0000	4
14:56:17	3721.0000	1422.0000	27
14:56:17	3731.0000	1428.0000	39
14:56:17	3721.0000	1432.0000	47
14:56:17	3725.0000	1435.0000	38
14:56:17	3725.0000	1415.0000	11
14:56:17	3723.0000	1411.0000	31
14:56:17	3731.0000	1416.0000	29
14:56:17	3719.0000	1426.0000	43
14:56:17	3735.0000	1433.0000	43
14:56:18	3715.0000	1436.0000	52
14:56:18	3727.0000	1422.0000	7
14:56:18	3739.0000	1424.0000	30
14:56:18	3715.0000	1412.0000	41
14:56:18	3706.0000	1414.0000	53
14:56:18	3728.0000	1430.0000	58
14:56:18	3724.0000	1452.0000	48
14:56:18	3722.0000	1421.0000	7
14:56:18	3724.0000	1411.0000	38
14:56:18	3718.0000	1413.0000	45
14:56:18	3719.0000	1424.0000	47
14:56:18	3716.0000	1434.0000	43
14:56:18	3728.0000	1426.0000	3
14:56:18	3713.0000	1411.0000	29
14:56:18	3711.0000	1416.0000	30
14:56:18	3705.0000	1422.0000	46
14:56:18	3721.0000	1431.0000	48
14:56:18	3709.0000	1435.0000	58
14:56:18	3727.0000	1422.0000	8
14:56:18	3730.0000	1421.0000	32
14:56:18	3723.0000	1412.0000	44
14:56:18	3724.0000	1425.0000	48
14:56:18	3723.0000	1437.0000	48
14:56:18	3714.0000	1441.0000	57
14:56:18	3727.0000	1427.0000	9
14:56:18	3728.0000	1425.0000	26
14:56:18	3730.0000	1427.0000	40
14:56:18	3728.0000	1426.0000	47
14:56:18	3701.0000	1431.0000	43
14:56:18	3724.0000	1425.0000	0
14:56:18	3726.0000	1409.0000	27
14:56:18	3719.0000	1414.0000	38
14:56:18	3705.0000	1414.0000	46
14:56:18	3722.0000	1429.0000	49
14:56:18	3718.0000	1438.0000	48
14:56:18	3725.0000	1419.0000	5
14:56:18	3729.0000	1414.0000	29
14:56:18	3719.0000	1415.0000	41
14:56:18	3703.0000	1421.0000	34
14:56:18	3729.0000	1430.0000	48
14:56:18	3724.0000	1439.0000	47
14:56:18	3715.0000	1418.0000	7
14:56:18	3722.0000	1413.0000	29
14:56:18	3723.0000	1414.0000	43
14:56:18	3724.0000	1423.0000	45
14:56:18	3718.0000	1431.0000	47
14:56:18	3735.0000	1421.0000	0
14:56:18	3716.0000	1412.0000	29
14:56:18	3711.0000	1406.0000	30
14:56:18	3744.0000	1420.0000	43
14:56:18	3715.0000	1427.0000	46
14:56:18	3745.0000	1432.0000	51
14:56:18	3725.0000	1418.0000	6
14:56:18	3730.0000	1410.0000	29
14:56:18	3723.0000	1410.0000	48
14:56:18	3714.0000	1412.0000	52
14:56:18	3726.0000	1420.0000	54
14:56:18	3725.0000	1424.0000	60
14:56:18	3724.0000	1423.0000	6
14:56:18	3725.0000	1411.0000	33
14:56:18	3728.0000	1412.0000	55
14:56:18	3715.0000	1424.0000	51
14:56:18	3717.0000	1428.0000	54
14:56:18	3735.0000	1416.0000	0
14:56:18	3725.0000	1408.0000	20
14:56:18	3718.0000	1414.0000	41
14:56:18	3722.0000	1418.0000	46
14:56:18	3713.0000	1426.0000	48
14:56:18	3701.0000	1436.0000	55
14:56:18	3715.0000	1410.0000	0
14:56:18	3721.0000	1417.0000	21
14:56:18	3716.0000	1418.0000	36
14:56:18	3705.0000	1427.0000	35
14:56:18	3721.0000	1435.0000	54
14:56:18	3717.0000	1440.0000	48
14:56:18	3726.0000	1426.0000	2
14:56:18	3708.0000	1425.0000	26
14:56:18	3713.0000	1427.0000	35
14:56:18	3718.0000	1431.0000	42
14:56:18	3714.0000	1436.0000	46
14:56:18	3727.0000	1424.0000	0
14:56:18	3721.0000	1414.0000	28
14:56:18	3707.0000	1420.0000	29
14:56:18	3721.0000	1426.0000	48
14:56:18	3719.0000	1440.0000	46
14:56:18	3715.0000	1440.0000	47
14:56:18	3715.0000	1416.0000	3
14:56:18	3718.0000	1411.0000	34
14:56:18	3723.0000	1410.0000	50
14:56:18	3710.0000	1417.0000	47
14:56:18	3723.0000	1420.0000	62
14:56:18	3728.0000	1436.0000	51
14:56:18	3723.0000	1417.0000	13
14:56:18	3696.0000	1409.0000	38
14:56:18	3719.0000	1413.0000	47
14:56:18	3721.0000	1413.0000	58
14:56:18	3702.0000	1431.0000	48
14:56:18	3718.0000	1412.0000	1
14:56:18	3739.0000	1414.0000	30
14:56:18	3725.0000	1410.0000	46
14:56:18	3719.0000	1403.0000	56
14:56:18	3716.0000	1420.0000	53
14:56:18	3737.0000	1433.0000	48
14:56:18	3727.0000	1425.0000	10
14:56:18	3754.0000	1429.0000	28
14:56:18	3717.0000	1421.0000	45
14:56:18	3725.0000	1434.0000	43
14:56:18	3730.0000	1436.0000	46
14:56:18	3718.0000	1441.0000	47
14:56:18	3723.0000	1423.0000	5
14:56:18	3722.0000	1405.0000	38
14:56:18	3726.0000	1415.0000	42
14:56:18	3719.0000	1426.0000	46
14:56:18	3735.0000	1433.0000	48
14:56:18	3733.0000	1420.0000	2
14:56:18	3725.0000	1409.0000	25
14:56:18	3699.0000	1418.0000	32
14:56:18	3726.0000	1424.0000	45
14:56:18	3726.0000	1425.0000	46
14:56:18	3733.0000	1446.0000	36
14:56:18	3724.0000	1421.0000	13
14:56:18	3735.0000	1413.0000	25
14:56:18	3734.0000	1435.0000	29
14:56:18	3710.0000	1422.0000	46
14:56:18	3734.0000	1429.0000	46
14:56:18	3722.0000	1438.0000	49
14:56:18	3719.0000	1425.0000	4
14:56:18	3684.0000	1425.0000	25
14:56:18	3719.0000	1416.0000	39
14:56:18	3706.0000	1419.0000	48
14:56:18	3723.0000	1439.0000	55
14:56:18	3724.0000	1416.0000	9
14:56:18	3719.0000	1412.0000	32
14:56:18	3707.0000	1414.0000	45
14:56:18	3713.0000	1418.0000	48
14:56:18	3717.0000	1423.0000	54
14:56:18	3726.0000	1434.0000	53
14:56:18	3722.0000	1421.0000	13
14:56:18	3723.0000	1418.0000	32
14:56:18	3718.0000	1416.0000	46
14:56:18	3727.0000	1415.0000	64
14:56:18	3727.0000	1435.0000	49
14:56:18	3728.0000	1435.0000	46
14:56:18	3726.0000	1418.0000	15
14:56:18	3715.0000	1407.0000	35
14:56:18	3716.0000	1412.0000	48
14:56:18	3725.0000	1420.0000	50
14:56:18	3733.0000	1429.0000	52
14:56:18	3728.0000	1412.0000	11
14:56:18	3727.0000	1410.0000	30
14:56:18	3718.0000	1411.0000	48
14:56:18	3718.0000	1424.0000	43
14:56:18	3727.0000	1431.0000	48
14:56:18	3699.0000	1437.0000	42
14:56:18	3717.0000	1436.0000	0
14:56:18	3726.0000	1420.0000	32
14:56:18	3696.0000	1419.0000	29
14:56:18	3735.0000	1434.0000	39
14:56:18	3723.0000	1432.0000	49
14:56:18	3732.0000	1441.0000	48
14:56:18	3713.0000	1426.0000	13
14:56:18	3719.0000	1404.0000	35
14:56:18	3728.0000	1423.0000	37
14:56:18	3709.0000	1433.0000	48
14:56:18	3733.0000	1430.0000	49
14:56:18	3726.0000	1421.0000	3
14:56:18	3726.0000	1413.0000	24
14:56:18	3729.0000	1421.0000	35
14:56:18	3719.0000	1421.0000	42
14:56:18	3707.0000	1432.0000	48
14:56:18	3730.0000	1445.0000	47
14:56:18	3723.0000	1425.0000	5
14:56:18	3715.0000	1402.0000	29
14:56:18	3707.0000	1429.0000	43
14:56:18	3726.0000	1428.0000	44
14:56:18	3723.0000	1436.0000	43
14:56:18	3723.0000	1442.0000	48
14:56:18	3729.0000	1435.0000	0
14:56:18	3731.0000	1413.0000	31
14:56:18	3717.0000	1414.0000	47
14:56:18	3725.0000	1420.0000	50
14:56:18	3723.0000	1428.0000	58
14:56:18	3725.0000	1424.0000	0
14:56:18	3718.0000	1414.0000	27
14:56:18	3728.0000	1408.0000	43
14:56:18	3719.0000	1418.0000	56
14:56:18	3710.0000	1423.0000	56
14:56:18	3723.0000	1431.0000	51
14:56:18	3722.0000	1423.0000	3
14:56:18	3713.0000	1415.0000	26
14:56:18	3709.0000	1419.0000	36
14:56:18	3729.0000	1435.0000	42
14:56:18	3729.0000	1440.0000	45
14:56:18	3697.0000	1444.0000	43
14:56:18	3725.0000	1427.0000	10
14:56:18	3726.0000	1414.0000	26
14:56:18	3731.0000	1422.0000	32
14:56:18	3715.0000	1427.0000	41
14:56:18	3731.0000	1440.0000	46
14:56:18	3728.0000	1427.0000	9
14:56:18	3709.0000	1421.0000	16
14:56:18	3723.0000	1410.0000	44
14:56:18	3724.0000	1427.0000	39
14:56:18	3728.0000	1434.0000	35
14:56:18	3711.0000	1450.0000	48
14:56:18	3717.0000	1422.0000	6
14:56:18	3751.0000	1418.0000	27
14:56:18	3707.0000	1416.0000	39
14:56:18	3729.0000	1424.0000	51
14:56:18	3706.0000	1426.0000	45
14:56:18	3737.0000	1438.0000	39
14:56:18	3734.0000	1424.0000	3
14:56:18	3727.0000	1423.0000	27
14:56:18	3731.0000	1433.0000	25
14:56:18	3723.0000	1430.0000	38
14:56:18	3718.0000	1444.0000	39
14:56:18	3725.0000	1423.0000	2
14:56:18	3719.0000	1414.0000	26
14:56:18	3738.0000	1423.0000	36
14:56:18	3718.0000	1422.0000	44
14:56:19	3720.0000	1430.0000	48
14:56:19	3722.0000	1440.0000	48
14:56:19	3727.0000	1426.0000	4
14:56:19	3737.0000	1436.0000	16
14:56:19	3709.0000	1419.0000	37
14:56:19	3731.0000	1428.0000	39
14:56:19	3719.0000	1434.0000	45
14:56:19	3710.0000	1436.0000	42
14:56:19	3730.0000	1431.0000	2
14:56:19	3726.0000	1413.0000	34
14:56:19	3734.0000	1431.0000	35
14:56:19	3709.0000	1423.0000	48
14:56:19	3718.0000	1428.0000	55
14:56:19	3728.0000	1421.0000	0
14:56:19	3728.0000	1404.0000	32
14:56:19	3728.0000	1420.0000	43
14:56:19	3723.0000	1419.0000	50
14:56:19	3706.0000	1424.0000	48
14:56:19	3702.0000	1428.0000	54
14:56:19	3728.0000	1426.0000	4
14:56:19	3721.0000	1417.0000	25
14:56:19	3702.0000	1408.0000	38
14:56:19	3717.0000	1428.0000	40
14:56:19	3721.0000	1435.0000	48
14:56:19	3703.0000	1433.0000	48
14:56:19	3729.0000	1425.0000	12
14:56:19	3709.0000	1419.0000	26
14:56:19	3722.0000	1427.0000	40
14:56:19	3715.0000	1425.0000	50
14:56:19	3733.0000	1437.0000	48
14:56:19	3728.0000	1419.0000	6
14:56:19	3725.0000	1407.0000	34
14:56:19	3718.0000	1406.0000	48
14:56:19	3723.0000	1413.0000	54
14:56:19	3718.0000	1424.0000	53
14:56:19	3729.0000	1430.0000	53
14:56:19	3729.0000	1426.0000	2
14:56:19	3715.0000	1418.0000	30
14:56:19	3718.0000	1404.0000	48
14:56:19	3725.0000	1430.0000	49
14:56:19	3715.0000	1436.0000	49
14:56:19	3723.0000	1441.0000	48
14:56:19	3735.0000	1430.0000	5
14:56:19	3723.0000	1423.0000	34
14:56:19	3703.0000	1424.0000	29
14:56:19	3731.0000	1434.0000	42
14:56:19	3726.0000	1438.0000	48
14:56:19	3727.0000	1420.0000	5
14:56:19	3718.0000	1407.0000	33
14:56:19	3716.0000	1418.0000	34
14:56:19	3732.0000	1426.0000	34
14:56:19	3711.0000	1416.0000	48
14:56:19	3729.0000	1447.0000	47
14:56:19	3728.0000	1423.0000	9
14:56:19	3705.0000	1423.0000	16
14:56:19	3729.0000	1423.0000	35
14:56:19	3723.0000	1431.0000	45
14:56:19	3729.0000	1439.0000	34
14:56:19	3708.0000	1450.0000	48
14:56:19	3725.0000	1428.0000	6
14:56:19	3734.0000	1440.0000	16
14:56:19	3707.0000	1408.0000	41
14:56:19	3718.0000	1425.0000	43
14:56:19	3722.0000	1438.0000	48
14:56:19	3723.0000	1418.0000	5
14:56:19	3760.0000	1413.0000	27
14:56:19	3714.0000	1415.0000	37
14:56:19	3698.0000	1421.0000	42
14:56:19	3718.0000	1430.0000	45
14:56:19	3713.0000	1439.0000	48
14:56:19	3719.0000	1415.0000	5
14:56:19	3729.0000	1413.0000	29
14:56:19	3729.0000	1421.0000	39
14:56:19	3721.0000	1424.0000	44
14:56:19	3717.0000	1433.0000	47
14:56:19	3723.0000	1440.0000	48
14:56:19	3723.0000	1420.0000	10
14:56:19	3728.0000	1415.0000	30
14:56:19	3717.0000	1421.0000	39
14:56:19	3728.0000	1429.0000	44
14:56:19	3721.0000	1438.0000	48
14:56:19	3710.0000	1422.0000	2
14:56:19	3728.0000	1420.0000	27
14:56:19	3713.0000	1414.0000	42
14:56:19	3719.0000	1419.0000	34
14:56:19	3719.0000	1433.0000	45
14:56:19	3718.0000	1436.0000	48
14:56:19	3725.0000	1415.0000	0
14:56:19	3714.0000	1405.0000	33
14:56:19	3713.0000	1410.0000	46
14:56:19	3718.0000	1419.0000	50
14:56:19	3697.0000	1426.0000	46
14:56:19	3721.0000	1443.0000	55
14:56:19	3714.0000	1413.0000	15
14:56:19	3710.0000	1406.0000	34
14:56:19	3710.0000	1409.0000	43
14:56:19	3707.0000	1425.0000	47
14:56:19	3708.0000	1433.0000	51
14:56:19	3719.0000	1418.0000	5
14:56:19	3728.0000	1421.0000	25
14:56:19	3713.0000	1418.0000	35
14:56:19	3713.0000	1422.0000	46
14:56:19	3713.0000	1430.0000	47
14:56:19	3707.0000	1437.0000	48
14:56:19	3723.0000	1413.0000	0
14:56:19	3715.0000	1413.0000	29
14:56:19	3714.0000	1416.0000	35
14:56:19	3710.0000	1422.0000	48
14:56:19	3696.0000	1423.0000	33
14:56:19	3709.0000	1439.0000	54
14:56:19	3715.0000	1421.0000	9
14:56:19	3703.0000	1414.0000	26
14:56:19	3711.0000	1414.0000	47
14:56:19	3696.0000	1417.0000	46
14:56:19	3707.0000	1433.0000	53
14:56:19	3701.0000	1419.0000	4
14:56:19	3696.0000	1404.0000	42
14:56:19	3728.0000	1407.0000	50
14:56:19	3677.0000	1414.0000	45
14:56:19	3600.0000	1406.0000	62
14:56:19	3408.0000	1423.0000	50
14:56:19	3350.0000	1398.0000	3
14:56:19	3377.0000	1378.0000	30
14:56:19	3247.0000	1373.0000	34
14:56:19	3142.0000	1368.0000	36
14:56:19	3297.0000	1366.0000	30
14:56:19	3479.0000	1382.0000	41
14:56:19	3321.0000	1359.0000	0
14:56:19	3285.0000	1339.0000	17
14:56:19	3197.0000	1338.0000	33
14:56:19	3056.0000	1328.0000	31
14:56:19	2960.0000	1334.0000	24
14:56:19	2485.0000	1269.0000	0
14:56:19	2416.0000	1225.0000	9
14:56:19	2356.0000	1198.0000	16
14:56:19	2288.0000	1170.0000	16
14:56:19	2230.0000	1143.0000	16
14:56:19	2176.0000	1120.0000	21
14:56:19	1790.0000	1046.0000	0
14:56:19	1889.0000	1018.0000	0
14:56:19	2077.0000	996.0000	7
14:56:19	2171.0000	979.0000	0
14:56:19	2145.0000	980.0000	7
14:56:19	2101.0000	964.0000	3
14:56:19	2384.0000	944.0000	0
14:56:19	2304.0000	929.0000	0
14:56:19	2245.0000	939.0000	0
14:56:19	2192.0000	932.0000	0
14:56:19	2162.0000	917.0000	0
14:56:19	2240.0000	925.0000	2
14:56:19	3706.0000	969.0000	0
14:56:19	3679.0000	1031.0000	0
14:56:19	3692.0000	1076.0000	15
14:56:19	3712.0000	1125.0000	17
14:56:19	3692.0000	1169.0000	20
14:56:19	3687.0000	1194.0000	16
14:56:19	3132.0000	1187.0000	0
14:56:19	3031.0000	1188.0000	10
14:56:19	2928.0000	1191.0000	7
14:56:19	2851.0000	1198.0000	16
14:56:19	2759.0000	1186.0000	19
14:56:19	2251.0000	1126.0000	0
14:56:19	2196.0000	1102.0000	2
14:56:19	2138.0000	1083.0000	4
14:56:19	2071.0000	1050.0000	7
14:56:19	1999.0000	1023.0000	8
14:56:19	1937.0000	999.0000	13
14:56:19	1565.0000	927.0000	0
14:56:19	1535.0000	891.0000	0
14:56:19	1602.0000	861.0000	0
14:56:19	1666.0000	834.0000	0
14:56:19	1659.0000	816.0000	0
14:56:19	1654.0000	795.0000	0
14:56:19	1846.0000	770.0000	0
14:56:19	1808.0000	763.0000	0
14:56:19	1787.0000	752.0000	0
14:56:19	1851.0000	756.0000	0
14:56:19	1917.0000	755.0000	0
14:56:19	1974.0000	759.0000	0
14:56:19	2085.0000	752.0000	0
14:56:19	2061.0000	762.0000	0
14:56:19	2100.0000	771.0000	0
14:56:19	2058.0000	765.0000	0
14:56:19	2096.0000	784.0000	0
14:56:19	2096.0000	785.0000	0
14:56:19	1806.0000	761.0000	0
14:56:19	1774.0000	752.0000	0
14:56:19	1730.0000	746.0000	0
14:56:19	1693.0000	732.0000	0
14:56:19	1651.0000	715.0000	0
14:56:19	1619.0000	711.0000	0
14:56:19	1318.0000	687.0000	0
14:56:19	1281.0000	659.0000	0
14:56:19	1246.0000	640.0000	0
14:56:19	1216.0000	621.0000	0
14:56:19	1194.0000	605.0000	0
14:56:19	1205.0000	583.0000	0
14:56:19	2128.0000	656.0000	0
14:56:19	2165.0000	673.0000	0
14:56:19	2161.0000	703.0000	0
14:56:19	2144.0000	714.0000	0
14:56:19	2128.0000	726.0000	0
14:56:19	2098.0000	741.0000	0
14:56:19	2609.0000	769.0000	0
14:56:19	2763.0000	816.0000	0
14:56:19	2883.0000	851.0000	0
14:56:19	2906.0000	888.0000	6
14:56:19	2845.0000	912.0000	14
14:56:19	2832.0000	947.0000	16
14:56:19	2389.0000	917.0000	0
14:56:19	2341.0000	922.0000	4
14:56:19	2295.0000	924.0000	10
14:56:19	2233.0000	911.0000	11
14:56:19	2185.0000	908.0000	13
14:56:19	2158.0000	905.0000	16
14:56:19	1754.0000	855.0000	0
14:56:19	1697.0000	838.0000	0
14:56:19	1712.0000	805.0000	0
14:56:19	1862.0000	805.0000	0
14:56:19	2176.0000	816.0000	0
14:56:19	2473.0000	827.0000	0
14:56:19	3697.0000	894.0000	0
14:56:19	3665.0000	954.0000	1
14:56:19	3627.0000	999.0000	12
14:56:19	3705.0000	1062.0000	16
14:56:19	3728.0000	1119.0000	14
14:56:19	3699.0000	1157.0000	16
14:56:19	3708.0000	1152.0000	0
14:56:19	3703.0000	1203.0000	16
14:56:19	3712.0000	1222.0000	19
14:56:19	3709.0000	1246.0000	27
14:56:19	3696.0000	1256.0000	32
14:56:19	3726.0000	1301.0000	34
14:56:19	3713.0000	1293.0000	3
14:56:19	3686.0000	1302.0000	10
14:56:19	3692.0000	1328.0000	29
14:56:19	3707.0000	1333.0000	39
14:56:19	3713.0000	1368.0000	32
14:56:19	3114.0000	1310.0000	4
14:56:19	2983.0000	1300.0000	14
14:56:19	2868.0000	1286.0000	16
14:56:19	2766.0000	1264.0000	34
14:56:19	2677.0000	1249.0000	29
14:56:19	2591.0000	1233.0000	29
14:56:19	2054.0000	1159.0000	0
14:56:19	1995.0000	1117.0000	11
14:56:19	1935.0000	1072.0000	16
14:56:19	1971.0000	1047.0000	7
14:56:19	2345.0000	1049.0000	14
14:56:19	2657.0000	1048.0000	19
14:56:19	3715.0000	1083.0000	0
14:56:19	3696.0000	1115.0000	16
14:56:19	3694.0000	1149.0000	29
14:56:19	3545.0000	1179.0000	41
14:56:19	3427.0000	1200.0000	28
14:56:19	2752.0000	1182.0000	0
14:56:19	2673.0000	1165.0000	10
14:56:20	2607.0000	1152.0000	13
14:56:20	2526.0000	1145.0000	16
14:56:20	2451.0000	1129.0000	16
14:56:20	2385.0000	1117.0000	16
14:56:20	1918.0000	1045.0000	0
14:56:20	1862.0000	1009.0000	0
14:56:20	1802.0000	976.0000	1
14:56:20	1744.0000	938.0000	2
14:56:20	1700.0000	919.0000	0
14:56:20	1647.0000	891.0000	0
14:56:20	1307.0000	816.0000	0
14:56:20	1264.0000	775.0000	0
14:56:20	1221.0000	737.0000	0
14:56:20	1183.0000	705.0000	0
14:56:20	1167.0000	675.0000	0
14:56:20	1110.0000	656.0000	0
14:56:20	895.0000	624.0000	0
14:56:20	877.0000	592.0000	0
14:56:20	874.0000	566.0000	0
14:56:20	831.0000	549.0000	0
14:56:20	815.0000	511.0000	0
14:56:20	791.0000	496.0000	0
14:56:20	661.0000	529.0000	0
14:56:20	653.0000	496.0000	0
14:56:20	634.0000	475.0000	0
14:56:20	619.0000	454.0000	0
14:56:20	601.0000	441.0000	0
14:56:20	597.0000	427.0000	0
14:56:20	542.0000	489.0000	0
14:56:20	532.0000	453.0000	0
14:56:20	510.0000	427.0000	0
14:56:20	494.0000	407.0000	0
14:56:20	490.0000	403.0000	0
14:56:20	479.0000	387.0000	0
14:56:20	403.0000	453.0000	0
14:56:20	400.0000	430.0000	0
14:56:20	391.0000	406.0000	0
14:56:20	384.0000	390.0000	0
14:56:20	373.0000	368.0000	0
14:56:20	370.0000	367.0000	0
