"sep=	"
Shimmer_Timestamp	Shimmer_EMG_ENV	Shimmer_EMG_RAW	Shimmer_EMG_REF
hh:mm:ss	unit	unit	unit
13:27:12	117	1760	537
13:27:12	118	1760	534
13:27:12	123	1771	542
13:27:12	121	1761	539
13:27:12	119	1762	541
13:27:12	118	1762	534
13:27:12	118	1760	533
13:27:12	118	1761	534
13:27:12	114	1760	534
13:27:12	117	1761	537
13:27:12	121	1761	540
13:27:12	118	1759	538
13:27:12	121	1760	530
13:27:12	117	1759	539
13:27:12	119	1761	534
13:27:12	118	1754	537
13:27:12	121	1762	528
13:27:12	92	1762	283
13:27:12	77	1762	301
13:27:12	80	1762	323
13:27:12	78	1762	346
13:27:12	75	1765	367
13:27:12	69	1762	370
13:27:12	71	1763	394
13:27:12	70	1761	401
13:27:12	74	1763	415
13:27:12	70	1760	419
13:27:12	75	1762	432
13:27:12	75	1762	438
13:27:12	84	1763	449
13:27:12	73	1763	448
13:27:12	78	1762	453
13:27:12	79	1761	464
13:27:12	80	1765	466
13:27:12	80	1762	471
13:27:12	82	1765	477
13:27:12	82	1762	478
13:27:12	83	1763	488
13:27:12	83	1762	484
13:27:12	92	1763	494
13:27:12	88	1761	493
13:27:12	93	1751	496
13:27:12	90	1762	496
13:27:12	95	1763	499
13:27:12	95	1763	499
13:27:12	94	1765	505
13:27:12	92	1763	498
13:27:12	94	1760	500
13:27:12	96	1761	502
13:27:12	96	1761	504
13:27:12	97	1763	510
13:27:12	102	1762	511
13:27:12	100	1759	511
13:27:12	105	1761	506
13:27:12	102	1761	509
13:27:12	101	1761	511
13:27:12	103	1761	511
13:27:12	102	1763	511
13:27:12	107	1762	511
13:27:12	106	1759	511
13:27:12	107	1763	511
13:27:12	107	1761	510
13:27:12	112	1759	511
13:27:12	109	1763	511
13:27:12	101	1762	511
13:27:12	111	1761	528
13:27:12	109	1761	525
13:27:12	109	1761	522
13:27:12	107	1758	511
13:27:12	103	1763	511
13:27:12	106	1759	522
13:27:12	106	1760	524
13:27:12	108	1760	523
13:27:12	106	1760	527
13:27:12	111	1759	524
13:27:12	109	1759	509
13:27:12	111	1761	527
13:27:12	107	1761	523
13:27:12	110	1761	525
13:27:12	107	1761	524
13:27:12	111	1759	528
13:27:12	111	1759	528
13:27:12	110	1763	524
13:27:12	110	1760	527
13:27:12	110	1760	528
13:27:12	110	1761	511
13:27:12	110	1762	511
13:27:12	110	1762	511
13:27:12	115	1759	528
13:27:12	111	1759	528
13:27:12	112	1760	528
13:27:12	112	1761	528
13:27:12	101	1763	528
13:27:12	112	1760	511
13:27:12	112	1761	524
13:27:12	113	1762	528
13:27:12	112	1760	527
13:27:12	111	1759	528
13:27:12	112	1751	524
13:27:12	112	1761	528
13:27:12	112	1763	529
13:27:12	109	1765	528
13:27:12	113	1761	528
13:27:12	112	1761	528
13:27:12	112	1762	529
13:27:12	111	1760	526
13:27:12	112	1759	523
13:27:12	109	1761	511
13:27:12	109	1762	524
13:27:12	107	1763	528
13:27:12	112	1760	527
13:27:12	112	1760	528
13:27:12	112	1761	511
13:27:12	110	1758	528
13:27:12	106	1760	523
13:27:12	111	1760	511
13:27:12	111	1761	511
13:27:12	110	1759	528
13:27:12	114	1760	529
13:27:12	109	1759	511
13:27:12	110	1759	524
13:27:12	106	1761	527
13:27:12	109	1759	527
13:27:12	111	1759	528
13:27:12	110	1759	528
13:27:12	107	1759	528
13:27:12	109	1763	528
13:27:12	112	1759	528
13:27:12	107	1761	526
13:27:12	108	1761	526
13:27:12	106	1761	525
13:27:12	108	1759	527
13:27:12	111	1760	527
13:27:12	110	1759	527
13:27:12	109	1761	526
13:27:12	109	1760	526
13:27:12	103	1760	511
13:27:12	110	1766	526
13:27:12	108	1760	525
13:27:12	112	1761	528
13:27:12	112	1760	525
13:27:12	112	1763	530
13:27:12	112	1759	526
13:27:12	112	1761	528
13:27:12	109	1760	511
13:27:12	108	1762	511
13:27:12	109	1759	525
13:27:12	111	1760	528
13:27:12	112	1759	527
13:27:12	111	1759	528
13:27:12	112	1760	526
13:27:12	112	1762	528
13:27:12	109	1760	511
13:27:12	110	1759	511
13:27:12	110	1760	525
13:27:12	111	1761	527
13:27:12	112	1761	526
13:27:12	113	1761	528
13:27:12	112	1761	526
13:27:12	113	1765	528
13:27:12	111	1759	526
13:27:12	109	1759	511
13:27:12	110	1761	532
13:27:12	112	1760	528
13:27:12	112	1755	527
13:27:12	112	1761	528
13:27:12	112	1760	526
13:27:12	112	1761	524
13:27:12	109	1760	523
13:27:12	110	1757	509
13:27:12	111	1760	528
13:27:12	112	1760	526
13:27:12	112	1760	527
13:27:12	115	1761	526
13:27:12	112	1770	525
13:27:12	112	1763	526
13:27:12	112	1759	525
13:27:12	112	1762	524
13:27:12	111	1760	526
13:27:12	112	1759	527
13:27:12	112	1760	526
13:27:12	112	1760	524
13:27:12	111	1761	528
13:27:12	112	1759	526
13:27:12	112	1761	525
13:27:12	112	1762	527
13:27:12	111	1762	526
13:27:12	111	1763	525
13:27:12	112	1761	527
13:27:12	112	1760	526
13:27:12	112	1761	525
13:27:12	112	1761	523
13:27:12	111	1761	524
13:27:12	112	1763	526
13:27:12	112	1762	525
13:27:12	112	1763	525
13:27:12	111	1760	526
13:27:12	111	1761	527
13:27:12	112	1762	526
13:27:12	112	1761	525
13:27:12	112	1761	525
13:27:12	112	1761	525
13:27:12	112	1761	528
13:27:12	112	1764	528
13:27:12	112	1761	528
13:27:12	111	1761	527
13:27:12	112	1762	528
13:27:12	112	1763	527
13:27:12	112	1764	528
13:27:12	112	1762	526
13:27:12	109	1762	524
13:27:12	111	1763	527
13:27:12	111	1764	528
13:27:12	112	1762	528
13:27:12	112	1763	527
13:27:12	112	1763	525
13:27:12	112	1763	528
13:27:12	112	1763	526
13:27:12	112	1763	527
13:27:12	112	1762	526
13:27:12	112	1761	526
13:27:12	112	1763	528
13:27:12	112	1763	526
13:27:12	112	1765	528
13:27:12	113	1762	525
13:27:12	111	1762	526
13:27:12	112	1761	528
13:27:12	111	1763	527
13:27:12	112	1762	527
13:27:12	112	1763	527
13:27:12	112	1765	528
13:27:12	112	1761	528
13:27:12	112	1760	528
13:27:12	112	1762	529
13:27:12	112	1762	529
13:27:12	112	1760	529
13:27:12	115	1765	528
13:27:12	114	1763	531
13:27:12	113	1763	533
13:27:12	113	1761	531
13:27:12	116	1764	529
13:27:12	116	1763	533
13:27:12	114	1763	534
13:27:12	114	1765	538
13:27:12	115	1765	539
13:27:12	117	1762	538
13:27:12	118	1765	541
13:27:12	113	1764	530
13:27:12	91	1763	357
13:27:12	89	1763	375
13:27:12	85	1763	389
13:27:12	83	1765	401
13:27:12	82	1763	416
13:27:12	81	1763	429
13:27:12	80	1765	438
13:27:12	80	1763	447
13:27:12	81	1763	454
13:27:12	82	1765	463
13:27:12	85	1766	464
13:27:12	85	1765	471
13:27:12	87	1765	479
13:27:12	89	1764	486
13:27:12	93	1765	491
13:27:12	90	1765	494
13:27:12	91	1763	496
13:27:12	93	1763	497
13:27:12	96	1766	506
13:27:12	96	1763	505
13:27:12	16	1769	66
13:27:12	1	1763	112
13:27:12	2	1763	146
13:27:12	0	1764	184
13:27:12	0	1766	213
13:27:12	0	1755	235
13:27:12	0	1763	257
13:27:12	5	1763	279
13:27:12	6	1764	300
13:27:12	9	1762	317
13:27:12	5	1763	336
13:27:12	16	1765	342
13:27:12	21	1762	359
13:27:12	20	1764	363
13:27:12	26	1764	375
13:27:12	29	1762	384
13:27:12	34	1765	395
13:27:12	37	1765	400
13:27:12	41	1760	406
13:27:12	43	1762	415
13:27:12	48	1763	421
13:27:12	51	1763	427
13:27:12	54	1763	433
13:27:12	58	1763	435
13:27:12	62	1766	443
13:27:12	61	1762	439
13:27:12	66	1764	453
13:27:12	67	1762	450
13:27:12	70	1767	448
13:27:12	67	1762	453
13:27:12	76	1763	462
13:27:12	72	1763	464
13:27:12	74	1760	465
13:27:12	77	1763	465
13:27:12	81	1761	470
13:27:12	80	1763	473
13:27:12	80	1762	468
13:27:12	80	1763	485
13:27:12	81	1762	483
13:27:12	80	1763	479
13:27:12	83	1760	475
13:27:12	83	1761	482
13:27:12	83	1759	486
13:27:12	86	1762	487
13:27:12	86	1761	486
13:27:12	87	1759	489
13:27:12	87	1763	490
13:27:12	87	1762	492
13:27:12	90	1761	494
13:27:12	90	1764	495
13:27:12	90	1762	496
13:27:12	94	1762	497
13:27:12	95	1763	498
13:27:12	96	1763	500
13:27:12	97	1762	502
13:27:12	96	1762	502
13:27:12	98	1763	507
13:27:12	97	1760	506
13:27:12	99	1761	508
13:27:12	98	1763	510
13:27:12	99	1763	509
13:27:12	102	1762	510
13:27:12	100	1763	511
13:27:12	99	1763	511
13:27:12	100	1765	511
13:27:12	101	1764	511
13:27:12	102	1763	511
13:27:12	70	1762	266
13:27:12	64	1763	290
13:27:12	59	1764	314
13:27:12	61	1767	333
13:27:12	57	1764	350
13:27:12	58	1764	368
13:27:12	55	1763	375
13:27:12	59	1762	390
13:27:12	60	1762	400
13:27:12	59	1751	408
13:27:12	63	1763	419
13:27:12	65	1766	425
13:27:12	66	1764	435
13:27:12	66	1764	443
13:27:12	69	1766	449
13:27:12	75	1765	461
13:27:12	73	1765	461
13:27:12	76	1767	468
13:27:12	75	1764	464
13:27:12	78	1763	476
13:27:12	80	1763	471
13:27:12	81	1764	477
13:27:12	81	1765	481
13:27:12	81	1765	490
13:27:12	83	1762	487
13:27:12	85	1763	490
13:27:12	5	1765	55
13:27:12	0	1763	99
13:27:12	0	1763	144
13:27:12	0	1764	180
13:27:12	0	1763	206
13:27:12	0	1766	227
13:27:12	0	1762	250
13:27:12	0	1763	271
13:27:12	0	1761	289
13:27:12	3	1763	309
13:27:12	6	1764	323
13:27:13	13	1766	336
13:27:13	16	1761	353
13:27:13	16	1762	355
13:27:13	19	1761	368
13:27:13	21	1763	374
13:27:13	26	1763	384
13:27:13	30	1762	392
13:27:13	35	1761	405
13:27:13	39	1762	409
13:27:13	43	1764	418
13:27:13	46	1763	416
13:27:13	48	1762	420
13:27:13	49	1761	430
13:27:13	50	1762	432
13:27:13	56	1763	438
13:27:13	59	1763	445
13:27:13	62	1762	448
13:27:13	64	1761	453
13:27:13	63	1762	447
13:27:13	64	1760	448
13:27:13	66	1761	451
13:27:13	64	1759	455
13:27:13	71	1760	463
13:27:13	70	1761	465
13:27:13	74	1761	464
13:27:13	77	1765	466
13:27:13	71	1761	464
13:27:13	73	1761	480
13:27:13	77	1763	471
13:27:13	77	1762	473
13:27:13	80	1761	469
13:27:13	80	1762	478
13:27:13	80	1762	479
13:27:13	80	1765	476
13:27:13	80	1762	477
13:27:13	82	1763	480
13:27:13	82	1761	489
13:27:13	80	1762	477
13:27:13	81	1761	480
13:27:13	86	1761	484
13:27:13	86	1760	485
13:27:13	86	1762	490
13:27:13	85	1761	487
13:27:13	92	1761	487
13:27:13	86	1763	490
13:27:13	91	1761	485
13:27:13	89	1763	493
13:27:13	92	1762	492
13:27:13	94	1761	496
13:27:13	86	1762	489
13:27:13	88	1762	492
13:27:13	94	1761	495
13:27:13	94	1761	495
13:27:13	95	1764	493
13:27:13	93	1761	496
13:27:13	93	1761	496
13:27:13	89	1762	497
13:27:13	89	1761	495
13:27:13	94	1762	496
13:27:13	95	1761	498
13:27:13	94	1762	497
13:27:13	91	1762	495
13:27:13	95	1761	496
13:27:13	93	1761	496
13:27:13	94	1762	498
13:27:13	96	1761	498
13:27:13	97	1761	499
13:27:13	93	1760	502
13:27:13	102	1762	503
13:27:13	94	1761	496
13:27:13	98	1761	501
13:27:13	97	1761	503
13:27:13	97	1762	502
13:27:13	94	1762	498
13:27:13	99	1769	502
13:27:13	99	1763	503
13:27:13	100	1764	506
13:27:13	99	1768	496
13:27:13	100	1761	507
13:27:13	98	1761	502
13:27:13	100	1763	507
13:27:13	98	1760	499
13:27:13	100	1760	505
13:27:13	99	1762	503
13:27:13	102	1759	505
13:27:13	101	1762	506
13:27:13	101	1764	511
13:27:13	102	1762	507
13:27:13	102	1763	507
13:27:13	104	1761	506
13:27:13	103	1762	511
13:27:13	103	1762	506
13:27:13	101	1762	507
13:27:13	101	1761	506
13:27:13	106	1763	511
13:27:13	102	1762	507
13:27:13	103	1761	505
13:27:13	102	1762	502
13:27:13	102	1762	506
13:27:13	102	1762	505
13:27:13	102	1761	502
13:27:13	101	1761	509
13:27:13	108	1762	507
13:27:13	105	1759	508
13:27:13	105	1761	503
13:27:13	102	1766	505
13:27:13	93	1760	503
13:27:13	102	1763	506
13:27:13	101	1761	506
13:27:13	106	1759	511
13:27:13	105	1761	511
13:27:13	103	1760	509
13:27:13	107	1761	505
13:27:13	101	1760	507
13:27:13	101	1759	502
13:27:13	100	1758	504
13:27:13	102	1760	509
13:27:13	102	1761	507
13:27:13	102	1758	506
13:27:13	103	1760	510
13:27:13	99	1760	506
13:27:13	99	1761	511
13:27:13	101	1760	508
13:27:13	103	1759	510
13:27:13	102	1762	503
13:27:13	101	1759	509
13:27:13	99	1762	507
13:27:13	99	1761	508
13:27:13	99	1759	508
13:27:13	104	1760	509
13:27:13	106	1760	511
13:27:13	103	1757	511
13:27:13	101	1760	503
13:27:13	109	1761	500
13:27:13	106	1760	511
13:27:13	104	1759	509
13:27:13	103	1759	508
13:27:13	106	1759	511
13:27:13	105	1759	511
13:27:13	105	1760	511
13:27:13	102	1760	507
13:27:13	103	1760	501
13:27:13	99	1761	500
13:27:13	102	1759	511
13:27:13	103	1757	510
13:27:13	105	1759	511
13:27:13	105	1759	511
13:27:13	102	1763	511
13:27:13	112	1761	511
13:27:13	105	1762	511
13:27:13	106	1759	511
13:27:13	105	1761	510
13:27:13	105	1759	509
13:27:13	106	1761	527
13:27:13	107	1760	509
13:27:13	106	1761	510
13:27:13	106	1762	510
13:27:13	109	1761	511
13:27:13	106	1760	511
13:27:13	106	1762	511
13:27:13	105	1761	510
13:27:13	110	1761	510
13:27:13	111	1761	510
13:27:13	107	1762	511
13:27:13	109	1761	511
13:27:13	110	1762	525
13:27:13	109	1763	511
13:27:13	110	1761	522
13:27:13	109	1760	511
13:27:13	110	1763	528
13:27:13	109	1762	526
13:27:13	110	1762	526
13:27:13	109	1762	511
13:27:13	112	1763	527
13:27:13	112	1762	526
13:27:13	108	1762	526
13:27:13	111	1763	527
13:27:13	112	1762	527
13:27:13	110	1762	527
13:27:13	23	1765	62
13:27:13	13	1763	99
13:27:13	6	1762	137
13:27:13	6	1763	176
13:27:13	5	1763	205
13:27:13	2	1763	234
13:27:13	4	1771	256
13:27:13	11	1762	275
13:27:13	4	1764	296
13:27:13	11	1763	304
13:27:13	15	1762	320
13:27:13	16	1771	336
13:27:13	20	1762	347
13:27:13	26	1762	359
13:27:13	27	1754	372
13:27:13	31	1761	381
13:27:13	37	1763	390
13:27:13	34	1765	392
13:27:13	42	1763	405
13:27:13	45	1763	409
13:27:13	48	1765	417
13:27:13	48	1762	415
13:27:13	50	1767	428
13:27:13	53	1761	430
13:27:13	55	1763	432
13:27:13	59	1763	437
13:27:13	64	1763	444
13:27:13	64	1762	447
13:27:13	67	1765	446
13:27:13	64	1762	448
13:27:13	67	1762	452
13:27:13	67	1761	453
13:27:13	71	1762	462
13:27:13	71	1763	463
13:27:13	77	1763	464
13:27:13	75	1761	465
13:27:13	77	1765	464
13:27:13	67	1763	464
13:27:13	79	1764	471
13:27:13	79	1763	471
13:27:13	79	1763	471
13:27:13	80	1762	476
13:27:13	80	1762	478
13:27:13	81	1761	479
13:27:13	83	1761	476
13:27:13	80	1761	477
13:27:13	83	1761	485
13:27:13	85	1761	482
13:27:13	85	1760	481
13:27:13	85	1763	485
13:27:13	83	1762	490
13:27:13	89	1761	489
13:27:13	83	1762	482
13:27:13	83	1762	489
13:27:13	82	1761	489
13:27:13	90	1763	491
13:27:13	84	1761	490
13:27:13	87	1761	490
13:27:13	87	1761	490
13:27:13	87	1761	488
13:27:13	87	1759	496
13:27:13	91	1759	496
13:27:13	92	1760	495
13:27:13	91	1759	491
13:27:13	91	1755	493
13:27:13	90	1760	494
13:27:13	93	1759	496
13:27:13	93	1759	496
13:27:13	93	1760	497
13:27:13	94	1763	498
13:27:13	97	1761	500
13:27:13	94	1761	501
13:27:13	92	1760	493
13:27:13	93	1759	496
13:27:13	91	1760	496
13:27:13	96	1757	499
13:27:13	96	1761	497
13:27:13	96	1759	503
13:27:13	96	1760	504
13:27:13	96	1762	507
13:27:13	95	1759	496
13:27:13	98	1762	500
13:27:13	99	1760	499
13:27:13	97	1762	503
13:27:13	99	1760	501
13:27:13	104	1761	509
13:27:13	102	1760	505
13:27:13	101	1770	507
13:27:13	99	1761	499
13:27:13	98	1762	496
13:27:13	101	1762	498
13:27:13	101	1760	503
13:27:13	102	1760	501
13:27:13	104	1761	509
13:27:13	101	1762	505
13:27:13	106	1759	508
13:27:13	100	1759	501
13:27:13	106	1761	509
13:27:13	105	1763	506
13:27:13	102	1750	509
13:27:13	100	1760	501
13:27:13	99	1759	510
13:27:13	103	1749	497
13:27:13	102	1761	507
13:27:13	101	1760	506
13:27:13	103	1763	507
13:27:13	101	1762	507
13:27:13	112	1763	504
13:27:13	102	1763	507
13:27:13	106	1760	504
13:27:13	101	1763	510
13:27:13	103	1760	505
13:27:13	102	1762	506
13:27:13	106	1761	506
13:27:13	102	1760	511
13:27:13	101	1761	509
13:27:13	100	1760	511
13:27:13	101	1761	508
13:27:13	101	1763	509
13:27:13	98	1760	499
13:27:13	99	1761	502
13:27:13	102	1759	510
13:27:13	101	1761	508
13:27:13	99	1763	508
13:27:13	101	1762	507
13:27:13	100	1763	509
13:27:13	101	1762	510
13:27:13	100	1760	507
13:27:13	101	1763	507
13:27:13	101	1768	509
13:27:13	103	1762	509
13:27:13	101	1761	507
13:27:13	102	1762	507
13:27:13	100	1762	507
13:27:13	102	1762	511
13:27:13	99	1763	502
13:27:13	102	1761	511
13:27:13	102	1763	510
13:27:13	101	1762	509
13:27:13	103	1762	509
13:27:13	106	1761	511
13:27:13	105	1763	511
13:27:13	106	1763	511
13:27:13	107	1762	511
13:27:13	107	1762	511
13:27:13	109	1763	525
13:27:13	108	1762	511
13:27:13	103	1763	511
13:27:13	107	1762	511
13:27:13	106	1762	525
13:27:13	109	1762	526
13:27:13	110	1762	523
13:27:13	14	1770	59
13:27:13	6	1767	103
13:27:13	1	1767	144
13:27:13	0	1765	176
13:27:13	0	1766	208
13:27:13	0	1769	226
13:27:13	0	1765	248
13:27:13	0	1764	270
13:27:13	0	1763	288
13:27:13	0	1766	305
13:27:13	11	1766	322
13:27:13	14	1765	336
13:27:13	16	1766	340
13:27:13	16	1765	354
13:27:13	19	1762	367
13:27:13	21	1763	378
13:27:13	30	1762	384
13:27:13	33	1763	393
13:27:13	38	1765	398
13:27:13	39	1765	405
13:27:13	45	1763	403
13:27:13	44	1761	421
13:27:13	48	1761	413
13:27:13	48	1762	429
13:27:13	55	1762	429
13:27:13	55	1766	433
13:27:13	57	1763	438
13:27:13	59	1762	448
13:27:13	64	1762	449
13:27:13	65	1762	452
13:27:13	66	1762	453
13:27:13	68	1763	458
13:27:13	64	1763	453
13:27:13	66	1762	459
13:27:13	70	1762	462
13:27:13	70	1761	460
13:27:13	76	1763	465
13:27:13	75	1761	468
13:27:13	77	1761	469
13:27:13	77	1762	471
13:27:13	75	1761	468
13:27:13	77	1760	471
13:27:13	78	1761	470
13:27:13	80	1762	479
13:27:13	80	1762	479
13:27:13	80	1762	479
13:27:13	81	1761	479
13:27:13	80	1762	481
13:27:13	80	1761	478
13:27:13	80	1760	479
13:27:13	82	1763	483
13:27:13	85	1761	484
13:27:13	84	1762	483
13:27:13	84	1762	487
13:27:13	86	1762	481
13:27:13	84	1766	493
13:27:13	83	1762	483
13:27:13	93	1755	483
13:27:13	87	1761	486
13:27:13	85	1760	491
13:27:13	86	1762	490
13:27:13	93	1763	496
13:27:13	89	1761	493
13:27:13	91	1761	496
13:27:13	85	1750	490
13:27:13	85	1761	490
13:27:13	89	1760	495
13:27:13	90	1762	496
13:27:13	91	1762	496
13:27:13	92	1763	497
13:27:13	91	1762	496
13:27:13	93	1764	498
13:27:13	90	1761	494
13:27:13	87	1762	496
13:27:13	89	1760	494
13:27:13	92	1759	498
13:27:13	97	1761	496
13:27:13	95	1763	502
13:27:13	94	1761	497
13:27:13	98	1762	498
13:27:13	93	1762	494
13:27:13	97	1761	497
13:27:13	93	1757	498
13:27:13	94	1760	498
13:27:13	95	1760	497
13:27:13	96	1763	498
13:27:13	95	1761	496
13:27:13	96	1760	496
13:27:13	96	1761	500
13:27:13	97	1762	497
13:27:13	97	1762	497
13:27:13	95	1761	494
13:27:13	92	1761	497
13:27:13	96	1761	499
13:27:13	96	1762	499
13:27:13	97	1760	499
13:27:13	96	1761	499
13:27:13	95	1761	501
13:27:13	98	1759	503
13:27:13	96	1762	498
13:27:13	99	1762	502
13:27:13	97	1762	503
13:27:13	95	1763	503
13:27:13	94	1759	498
13:27:13	95	1761	499
13:27:13	98	1762	499
13:27:13	101	1760	502
13:27:13	98	1761	502
13:27:13	100	1759	502
13:27:13	101	1761	503
13:27:13	100	1762	503
13:27:13	98	1760	501
13:27:13	96	1760	499
13:27:13	89	1761	509
13:27:13	98	1762	507
13:27:13	97	1762	505
13:27:13	99	1762	506
13:27:13	98	1763	505
13:27:13	101	1762	510
13:27:13	98	1760	501
13:27:13	99	1759	506
13:27:13	100	1763	509
13:27:13	101	1762	510
13:27:13	98	1762	503
13:27:13	101	1759	503
13:27:13	102	1761	509
13:27:13	101	1762	506
13:27:13	106	1761	507
13:27:13	101	1760	511
13:27:13	101	1762	507
13:27:13	100	1763	510
13:27:13	99	1761	503
13:27:13	101	1771	503
13:27:13	101	1761	502
13:27:13	98	1759	505
13:27:13	98	1760	501
13:27:13	99	1767	511
13:27:13	99	1760	506
13:27:13	101	1761	510
13:27:13	96	1760	502
13:27:13	96	1765	503
13:27:13	99	1761	502
13:27:13	97	1762	503
13:27:13	95	1759	511
13:27:13	89	1760	511
13:27:13	98	1762	508
13:27:13	103	1763	511
13:27:13	96	1760	506
13:27:13	98	1762	510
13:27:13	97	1761	511
13:27:13	99	1760	509
13:27:13	98	1760	510
13:27:13	102	1763	510
13:27:13	101	1763	508
13:27:13	102	1762	508
13:27:13	99	1760	507
13:27:13	102	1761	507
13:27:13	102	1767	510
13:27:13	101	1761	510
13:27:13	102	1763	509
13:27:13	106	1761	509
13:27:13	100	1761	507
13:27:13	103	1762	507
13:27:13	102	1761	509
13:27:13	104	1761	508
13:27:13	105	1762	510
13:27:13	103	1762	502
13:27:13	100	1763	504
13:27:13	103	1760	502
13:27:13	106	1760	511
13:27:13	103	1761	511
13:27:13	102	1761	510
13:27:13	104	1761	507
13:27:13	106	1762	511
13:27:13	99	1761	506
13:27:13	102	1761	506
13:27:13	102	1760	506
13:27:13	102	1760	511
13:27:13	102	1763	510
13:27:13	102	1763	511
13:27:13	101	1761	510
13:27:13	112	1762	511
13:27:13	101	1761	505
13:27:13	99	1760	507
13:27:13	100	1761	508
13:27:13	99	1761	506
13:27:13	103	1762	507
13:27:13	106	1761	511
13:27:13	105	1760	511
13:27:13	102	1762	511
13:27:13	101	1761	509
13:27:13	102	1761	508
13:27:13	105	1761	511
13:27:13	106	1761	511
13:27:13	105	1759	511
13:27:13	103	1763	511
13:27:13	106	1760	511
13:27:13	109	1762	511
13:27:13	103	1761	511
13:27:13	103	1762	511
13:27:13	107	1761	511
13:27:13	110	1763	525
13:27:13	107	1762	511
13:27:13	106	1761	511
13:27:13	106	1762	511
13:27:13	107	1763	525
13:27:13	102	1761	511
13:27:13	106	1764	511
13:27:13	29	1765	77
13:27:13	19	1764	123
13:27:13	16	1763	159
13:27:13	13	1767	192
13:27:13	11	1762	219
13:27:13	10	1766	242
13:27:13	9	1763	269
13:27:13	10	1761	285
13:27:13	12	1763	304
13:27:13	16	1762	321
13:27:13	17	1763	335
13:27:13	20	1765	346
13:27:13	24	1763	360
13:27:13	31	1763	368
13:27:13	34	1765	378
13:27:13	36	1761	386
13:27:13	40	1764	395
13:27:13	45	1763	401
13:27:13	48	1761	417
13:27:13	48	1762	422
13:27:13	50	1761	420
13:27:13	51	1765	430
13:27:13	54	1765	432
13:27:13	60	1763	442
13:27:13	61	1761	443
13:27:13	64	1762	447
13:27:13	64	1762	450
13:27:13	64	1763	458
13:27:13	66	1762	456
13:27:13	68	1761	459
13:27:13	70	1762	462
13:27:13	69	1765	464
13:27:13	73	1762	464
13:27:13	74	1763	464
13:27:13	77	1766	466
13:27:13	77	1764	470
13:27:13	76	1762	471
13:27:13	80	1763	473
13:27:13	79	1762	474
13:27:13	80	1763	476
13:27:13	80	1765	477
13:27:13	80	1766	481
13:27:13	81	1764	483
13:27:13	85	1765	491
13:27:13	84	1763	488
13:27:13	85	1763	489
13:27:13	86	1764	494
13:27:13	87	1765	497
13:27:13	86	1763	495
13:27:13	89	1765	496
13:27:13	90	1765	497
13:27:13	91	1763	497
13:27:13	91	1762	499
13:27:13	93	1763	499
13:27:13	92	1763	502
13:27:13	93	1764	500
13:27:13	94	1763	502
13:27:13	93	1761	501
13:27:13	7	1765	64
13:27:13	4	1765	109
13:27:13	0	1765	144
13:27:13	0	1763	170
13:27:13	0	1765	201
13:27:13	0	1763	234
13:27:13	1	1765	254
13:27:13	0	1763	275
13:27:13	2	1764	289
13:27:13	4	1762	314
13:27:13	7	1766	322
13:27:13	10	1762	332
13:27:13	15	1764	342
13:27:13	16	1763	353
13:27:13	19	1762	363
13:27:13	22	1763	371
13:27:13	31	1763	384
13:27:13	32	1763	391
13:27:13	33	1761	399
13:27:13	35	1762	400
13:27:13	37	1760	407
13:27:13	42	1762	417
13:27:13	48	1761	422
13:27:13	44	1763	429
13:27:13	51	1762	430
13:27:13	53	1765	433
13:27:13	58	1761	443
13:27:13	54	1765	438
13:27:13	58	1762	442
13:27:13	59	1763	448
13:27:13	64	1762	449
13:27:13	63	1761	449
13:27:13	66	1763	459
13:27:13	67	1761	457
13:27:13	67	1763	463
13:27:13	69	1760	455
13:27:13	68	1761	460
13:27:13	68	1761	462
13:27:13	69	1761	464
13:27:13	69	1760	466
13:27:13	71	1761	473
13:27:13	76	1762	469
13:27:13	78	1760	474
13:27:13	74	1761	469
13:27:13	77	1762	467
13:27:13	78	1760	471
13:27:13	77	1760	480
13:27:13	80	1759	478
13:27:13	80	1762	487
13:27:13	80	1760	478
13:27:13	84	1762	481
13:27:13	80	1761	477
13:27:13	80	1761	478
13:27:13	80	1760	478
13:27:13	81	1762	477
13:27:13	84	1759	483
13:27:13	94	1762	485
13:27:13	88	1761	483
13:27:13	86	1762	480
13:27:13	81	1760	480
13:27:13	86	1760	490
13:27:13	84	1760	488
13:27:13	85	1761	487
13:27:13	83	1761	489
13:27:13	91	1762	488
13:27:13	94	1761	490
13:27:13	91	1763	485
13:27:13	83	1761	487
13:27:13	83	1761	491
13:27:13	89	1759	491
13:27:13	87	1761	492
13:27:13	87	1761	493
13:27:13	92	1762	491
13:27:13	87	1762	493
13:27:13	94	1762	492
13:27:13	86	1763	494
13:27:13	92	1760	496
13:27:13	92	1763	496
13:27:13	92	1763	496
13:27:13	93	1761	494
13:27:13	91	1760	496
13:27:13	95	1765	496
13:27:13	90	1760	493
13:27:13	94	1762	496
13:27:13	91	1761	496
13:27:13	92	1762	496
13:27:13	92	1762	492
13:27:13	90	1761	494
13:27:13	95	1761	498
13:27:13	91	1761	499
13:27:13	94	1763	491
13:27:13	94	1761	497
13:27:13	93	1762	501
13:27:13	97	1762	501
13:27:13	91	1761	496
13:27:13	96	1761	498
13:27:13	94	1753	497
13:27:13	95	1762	502
13:27:13	93	1760	496
13:27:13	96	1751	496
13:27:13	94	1763	498
13:27:13	95	1762	499
13:27:13	97	1762	499
13:27:13	98	1761	502
13:27:13	88	1762	501
13:27:13	99	1764	505
13:27:13	96	1760	497
13:27:13	97	1762	505
13:27:13	97	1762	502
13:27:13	99	1763	505
13:27:13	97	1762	498
13:27:13	97	1760	501
13:27:13	99	1762	507
13:27:13	99	1763	507
13:27:13	97	1762	506
13:27:13	98	1763	511
13:27:13	98	1762	505
13:27:13	103	1762	511
13:27:13	98	1762	501
13:27:13	98	1762	507
13:27:13	102	1763	511
13:27:13	103	1761	511
13:27:13	107	1762	511
13:27:13	10	1764	58
13:27:13	6	1765	102
13:27:13	0	1766	144
13:27:13	0	1766	175
13:27:13	0	1763	203
13:27:13	0	1765	227
13:27:13	0	1760	249
13:27:13	0	1765	272
13:27:13	0	1765	290
13:27:13	6	1766	311
13:27:13	10	1766	321
13:27:13	13	1764	336
13:27:13	16	1766	340
13:27:13	16	1766	352
13:27:13	23	1765	368
13:27:13	26	1764	374
13:27:13	29	1765	385
13:27:13	33	1762	389
13:27:13	39	1765	398
13:27:13	39	1763	402
13:27:13	45	1765	402
13:27:13	43	1763	411
13:27:13	46	1763	417
13:27:13	48	1762	427
13:27:13	53	1765	431
13:27:13	53	1761	433
13:27:13	54	1764	434
13:27:13	58	1763	442
13:27:13	58	1763	441
13:27:13	61	1763	443
13:27:13	64	1761	449
13:27:13	66	1766	454
13:27:13	65	1763	453
13:27:13	67	1763	461
13:27:13	64	1763	457
13:27:13	68	1763	463
13:27:13	65	1767	463
13:27:13	66	1762	454
13:27:13	69	1762	462
13:27:13	69	1761	465
13:27:13	69	1762	463
13:27:13	75	1761	467
13:27:13	74	1763	470
13:27:13	78	1760	467
13:27:13	77	1763	471
13:27:13	79	1763	475
13:27:13	79	1761	479
13:27:13	80	1763	479
13:27:13	80	1763	480
13:27:13	81	1765	483
13:27:13	82	1762	484
13:27:13	83	1765	487
13:27:13	85	1762	486
13:27:13	85	1762	487
13:27:13	88	1763	490
13:27:13	88	1765	491
13:27:13	87	1763	495
13:27:13	89	1764	495
13:27:13	92	1762	495
13:27:13	90	1762	496
13:27:13	92	1763	496
13:27:13	5	1765	50
13:27:13	0	1767	102
13:27:13	0	1768	134
13:27:13	0	1766	176
13:27:13	0	1765	205
13:27:13	0	1767	223
13:27:13	0	1761	246
13:27:13	0	1766	268
13:27:13	0	1766	288
13:27:13	5	1762	304
13:27:13	7	1764	320
13:27:13	15	1763	336
13:27:13	15	1765	343
13:27:13	16	1766	355
13:27:13	17	1765	365
13:27:13	19	1761	377
13:27:13	30	1764	384
13:27:13	31	1765	390
13:27:13	34	1753	399
13:27:13	41	1766	402
13:27:13	42	1763	407
13:27:13	47	1762	404
13:27:13	49	1763	415
13:27:13	48	1761	424
13:27:13	51	1765	430
13:27:13	54	1762	432
13:27:13	58	1763	435
13:27:13	60	1762	439
13:27:13	58	1760	445
13:27:13	64	1763	448
13:27:13	65	1764	449
13:27:13	64	1762	451
13:27:13	66	1762	455
13:27:13	67	1763	457
13:27:13	66	1766	458
13:27:13	70	1763	464
13:27:13	71	1762	464
13:27:13	74	1762	464
13:27:13	76	1761	464
13:27:13	73	1762	466
13:27:13	77	1764	466
13:27:13	79	1763	469
13:27:13	78	1763	469
13:27:13	79	1765	473
13:27:13	80	1763	474
13:27:13	80	1764	473
13:27:13	80	1763	481
13:27:13	82	1765	479
13:27:13	82	1763	481
13:27:13	82	1763	484
13:27:13	83	1765	487
13:27:13	86	1762	485
13:27:13	86	1765	489
13:27:13	89	1763	493
13:27:13	87	1763	494
13:27:13	88	1765	495
13:27:13	90	1765	496
13:27:13	87	1765	495
13:27:13	91	1766	496
13:27:13	94	1762	496
13:27:13	91	1764	496
13:27:13	93	1765	497
13:27:13	3	1766	50
13:27:13	0	1764	95
13:27:13	0	1765	134
13:27:13	0	1765	170
13:27:13	0	1765	193
13:27:13	0	1765	225
13:27:13	0	1763	244
13:27:13	0	1768	270
13:27:13	0	1762	279
13:27:13	2	1764	299
13:27:13	4	1764	315
13:27:13	6	1762	327
13:27:13	10	1764	338
13:27:13	16	1764	349
13:27:13	16	1763	363
13:27:13	21	1763	368
13:27:13	20	1763	377
13:27:13	29	1771	385
13:27:13	32	1765	396
13:27:13	29	1763	400
13:27:13	34	1762	401
13:27:13	41	1766	407
13:27:13	46	1763	415
13:27:13	47	1764	423
13:27:13	49	1765	425
13:27:13	49	1764	431
13:27:13	54	1767	435
13:27:13	55	1762	442
13:27:13	54	1763	438
13:27:13	64	1763	448
13:27:13	59	1763	448
13:27:13	66	1766	454
13:27:13	64	1762	449
13:27:13	64	1765	450
13:27:13	64	1762	452
13:27:13	65	1762	451
13:27:13	66	1759	454
13:27:13	71	1761	464
13:27:13	75	1763	464
13:27:13	74	1763	468
13:27:13	74	1761	464
13:27:13	77	1759	462
13:27:13	76	1762	466
13:27:13	77	1761	465
13:27:13	76	1761	465
13:27:13	80	1763	475
13:27:13	80	1763	469
13:27:13	80	1762	478
13:27:13	79	1764	467
13:27:13	80	1765	469
13:27:13	79	1760	471
13:27:13	80	1760	478
13:27:13	80	1762	476
13:27:13	76	1760	481
13:27:13	83	1762	477
13:27:13	82	1763	482
13:27:13	80	1749	478
13:27:13	77	1760	477
13:27:13	80	1761	480
13:27:13	81	1760	483
13:27:13	81	1760	483
13:27:13	84	1762	481
13:27:13	83	1761	485
13:27:13	86	1765	478
13:27:13	83	1762	481
13:27:13	83	1760	485
13:27:13	83	1763	491
13:27:13	87	1762	490
13:27:13	85	1760	489
13:27:13	89	1763	486
13:27:13	87	1762	494
13:27:13	92	1761	496
13:27:13	85	1762	491
13:27:13	87	1762	492
13:27:13	85	1761	494
13:27:13	92	1761	497
13:27:13	89	1762	496
13:27:13	91	1762	499
13:27:13	90	1762	496
13:27:13	91	1763	502
13:27:13	67	1762	304
13:27:13	62	1766	323
13:27:13	64	1763	339
13:27:13	58	1763	357
13:27:13	57	1761	365
13:27:13	55	1761	378
13:27:13	58	1761	387
13:27:13	59	1762	401
13:27:13	59	1763	409
13:27:13	64	1762	417
13:27:13	64	1761	421
13:27:13	64	1761	432
13:27:13	63	1761	431
13:27:13	62	1763	435
13:27:13	64	1761	442
13:27:13	66	1763	448
13:27:13	69	1757	455
13:27:13	68	1762	456
13:27:13	67	1763	450
13:27:13	73	1762	462
13:27:13	67	1762	460
13:27:13	70	1761	469
13:27:13	70	1759	464
13:27:13	75	1751	470
13:27:13	75	1760	471
13:27:13	75	1760	473
13:27:13	77	1762	474
13:27:13	79	1761	475
13:27:13	79	1761	475
13:27:13	79	1760	475
13:27:13	80	1760	478
13:27:13	80	1760	481
13:27:13	82	1760	482
13:27:13	85	1758	487
13:27:13	82	1760	491
13:27:13	84	1761	488
13:27:13	81	1760	489
13:27:14	85	1761	486
13:27:14	84	1759	491
13:27:14	85	1759	493
13:27:14	86	1760	494
13:27:14	90	1759	495
13:27:14	87	1760	496
13:27:14	90	1759	496
13:27:14	94	1760	495
13:27:14	91	1759	496
13:27:14	91	1762	496
13:27:14	59	1763	240
13:27:14	51	1763	269
13:27:14	52	1762	291
13:27:14	47	1762	309
13:27:14	44	1762	322
13:27:14	45	1761	343
13:27:14	46	1763	354
13:27:14	48	1760	372
13:27:14	49	1763	381
13:27:14	49	1751	384
13:27:14	51	1762	402
13:27:14	55	1761	408
13:27:14	53	1762	412
13:27:14	59	1763	419
13:27:14	61	1761	427
13:27:14	60	1760	432
13:27:14	61	1763	437
13:27:14	64	1761	445
13:27:14	65	1757	448
13:27:14	65	1760	452
13:27:14	64	1761	454
13:27:14	67	1761	453
13:27:14	69	1763	462
13:27:14	66	1762	464
13:27:14	70	1760	465
13:27:14	74	1759	470
13:27:14	71	1759	470
13:27:14	74	1761	478
13:27:14	78	1762	470
13:27:14	75	1761	478
13:27:14	75	1760	480
13:27:14	77	1761	486
13:27:14	80	1760	483
13:27:14	80	1764	485
13:27:14	81	1764	486
13:27:14	80	1762	492
13:27:14	81	1762	491
13:27:14	0	1766	44
13:27:14	0	1765	112
13:27:14	0	1766	169
13:27:14	0	1763	223
13:27:14	0	1763	259
13:27:14	0	1761	299
13:27:14	0	1763	320
13:27:14	0	1766	351
13:27:14	0	1763	361
13:27:14	0	1763	381
13:27:14	0	1763	396
13:27:14	1	1762	413
13:27:14	5	1761	421
13:27:14	16	1763	444
13:27:14	22	1763	448
13:27:14	30	1763	462
13:27:14	33	1762	456
13:27:14	36	1763	463
13:27:14	43	1761	465
13:27:14	41	1763	469
13:27:14	48	1760	490
13:27:14	59	1762	490
13:27:14	62	1762	491
13:27:14	65	1763	493
13:27:14	61	1762	487
13:27:14	58	1761	485
13:27:14	65	1760	489
13:27:14	67	1764	493
13:27:14	70	1761	496
13:27:14	74	1762	496
13:27:14	73	1761	499
13:27:14	77	1763	494
13:27:14	70	1761	496
13:27:14	71	1760	497
13:27:14	71	1759	507
13:27:14	78	1758	506
13:27:14	79	1759	503
13:27:14	82	1762	501
13:27:14	77	1759	506
13:27:14	81	1760	496
13:27:14	77	1762	499
13:27:14	71	1760	499
13:27:14	77	1760	509
13:27:14	76	1760	507
13:27:14	75	1760	506
13:27:14	77	1760	505
13:27:14	75	1758	505
13:27:14	70	1761	496
13:27:14	75	1761	503
13:27:14	75	1759	501
13:27:14	78	1760	509
13:27:14	78	1761	507
13:27:14	80	1760	511
13:27:14	80	1762	507
13:27:14	80	1761	511
13:27:14	78	1762	503
13:27:14	80	1761	506
13:27:14	78	1760	505
13:27:14	80	1759	510
13:27:14	80	1760	511
13:27:14	80	1762	510
13:27:14	80	1758	511
13:27:14	81	1759	511
13:27:14	80	1759	504
13:27:14	80	1761	501
13:27:14	80	1767	508
13:27:14	79	1761	511
13:27:14	80	1759	511
13:27:14	80	1761	511
13:27:14	80	1761	511
13:27:14	83	1762	507
13:27:14	80	1760	504
13:27:14	79	1759	509
13:27:14	80	1758	507
13:27:14	81	1761	511
13:27:14	82	1759	511
13:27:14	85	1762	526
13:27:14	84	1760	511
13:27:14	85	1766	526
13:27:14	82	1761	508
13:27:14	80	1760	511
13:27:14	80	1759	510
13:27:14	85	1759	511
13:27:14	83	1759	511
13:27:14	83	1761	524
13:27:14	81	1763	509
13:27:14	84	1760	511
13:27:14	80	1760	507
13:27:14	80	1759	508
13:27:14	83	1760	511
13:27:14	81	1759	511
13:27:14	80	1760	511
13:27:14	89	1762	524
13:27:14	84	1759	511
13:27:14	83	1762	511
13:27:14	80	1765	503
13:27:14	80	1760	507
13:27:14	79	1759	503
13:27:14	81	1759	511
13:27:14	80	1760	511
13:27:14	83	1767	511
13:27:14	81	1759	511
13:27:14	84	1762	506
13:27:14	75	1761	509
13:27:14	75	1759	508
13:27:14	77	1759	507
13:27:14	80	1759	511
13:27:14	80	1760	510
13:27:14	80	1762	511
13:27:14	80	1760	507
13:27:14	80	1761	503
13:27:14	78	1764	508
13:27:14	73	1759	510
13:27:14	80	1761	511
13:27:14	72	1758	511
13:27:14	80	1760	510
13:27:14	81	1759	511
13:27:14	80	1758	511
13:27:14	82	1761	503
13:27:14	80	1759	503
13:27:14	80	1760	501
13:27:14	80	1761	511
13:27:14	81	1759	511
13:27:14	80	1759	510
13:27:14	80	1760	511
13:27:14	81	1760	511
13:27:14	80	1760	504
13:27:14	80	1762	510
13:27:14	79	1759	509
13:27:14	82	1761	511
13:27:14	81	1760	510
13:27:14	80	1760	506
13:27:14	80	1761	509
13:27:14	81	1760	511
13:27:14	77	1759	503
13:27:14	81	1761	508
13:27:14	78	1759	506
13:27:14	80	1759	511
13:27:14	80	1759	510
13:27:14	80	1761	511
13:27:14	80	1760	510
13:27:14	82	1760	527
13:27:14	80	1759	501
13:27:14	78	1762	503
13:27:14	80	1758	503
13:27:14	75	1757	503
13:27:14	80	1757	511
13:27:14	80	1757	511
13:27:14	83	1760	511
13:27:14	80	1761	527
13:27:14	80	1762	506
13:27:14	80	1761	505
13:27:14	79	1759	506
13:27:14	80	1759	511
13:27:14	79	1760	511
13:27:14	80	1760	522
13:27:14	80	1760	511
13:27:14	80	1759	509
13:27:14	81	1760	510
13:27:14	83	1763	511
13:27:14	82	1764	511
13:27:14	80	1760	511
13:27:14	80	1760	511
13:27:14	80	1761	509
13:27:14	80	1761	511
13:27:14	81	1763	502
13:27:14	79	1761	506
13:27:14	75	1760	506
13:27:14	80	1760	510
13:27:14	80	1760	510
13:27:14	78	1760	506
13:27:14	80	1760	507
13:27:14	79	1759	511
13:27:14	80	1761	499
13:27:14	77	1760	501
13:27:14	75	1761	502
13:27:14	80	1759	510
13:27:14	80	1760	509
13:27:14	80	1759	509
13:27:14	80	1761	509
13:27:14	80	1759	510
13:27:14	75	1761	502
13:27:14	80	1761	503
13:27:14	77	1761	507
13:27:14	80	1760	511
13:27:14	80	1763	511
13:27:14	80	1760	511
13:27:14	81	1761	505
13:27:14	82	1763	510
13:27:14	78	1759	503
13:27:14	80	1760	506
13:27:14	80	1760	502
13:27:14	80	1761	525
13:27:14	80	1760	508
13:27:14	80	1763	508
13:27:14	80	1761	510
13:27:14	80	1760	511
13:27:14	80	1759	506
13:27:14	78	1761	508
13:27:14	79	1761	505
13:27:14	80	1759	511
13:27:14	81	1760	502
13:27:14	79	1761	511
13:27:14	82	1760	511
13:27:14	80	1761	511
13:27:14	80	1761	502
13:27:14	79	1760	507
13:27:14	79	1760	506
13:27:14	80	1759	511
13:27:14	80	1759	511
13:27:14	80	1762	511
13:27:14	80	1761	507
13:27:14	82	1761	511
13:27:14	79	1760	504
13:27:14	79	1761	504
13:27:14	80	1759	511
13:27:14	81	1763	511
13:27:14	80	1763	511
13:27:14	81	1760	511
13:27:14	81	1767	510
13:27:14	82	1761	509
13:27:14	80	1761	510
13:27:14	81	1761	509
13:27:14	81	1760	508
13:27:14	80	1762	508
13:27:14	86	1761	506
13:27:14	74	1761	509
13:27:14	80	1760	503
13:27:14	80	1762	510
13:27:14	80	1761	505
13:27:14	80	1762	502
13:27:14	80	1762	507
13:27:14	80	1761	507
13:27:14	80	1761	509
13:27:14	79	1762	505
13:27:14	80	1761	506
13:27:14	80	1761	507
13:27:14	77	1760	509
13:27:14	79	1763	511
13:27:14	80	1762	508
13:27:14	77	1761	511
13:27:14	77	1762	509
13:27:14	80	1761	509
13:27:14	80	1761	511
13:27:14	80	1763	509
13:27:14	80	1761	509
13:27:14	80	1762	511
13:27:14	80	1762	511
13:27:14	82	1761	511
13:27:14	81	1761	511
13:27:14	83	1763	511
13:27:14	86	1762	511
13:27:14	86	1763	525
13:27:14	85	1763	525
13:27:14	85	1762	524
13:27:14	86	1764	525
13:27:14	86	1765	526
13:27:14	86	1762	527
13:27:14	91	1761	526
13:27:14	90	1761	527
13:27:14	89	1762	526
13:27:14	89	1763	527
13:27:14	93	1763	522
13:27:14	89	1764	526
13:27:14	0	1765	44
13:27:14	0	1764	112
13:27:14	0	1764	165
13:27:14	0	1763	208
13:27:14	0	1762	254
13:27:14	0	1765	276
13:27:14	0	1762	309
13:27:14	0	1765	338
13:27:14	0	1763	362
13:27:14	0	1762	371
13:27:14	0	1763	390
13:27:14	0	1763	411
13:27:14	0	1762	421
13:27:14	15	1761	430
13:27:14	18	1761	432
13:27:14	30	1762	446
13:27:14	33	1764	454
13:27:14	34	1765	454
13:27:14	39	1764	467
13:27:14	48	1762	467
13:27:14	49	1762	474
13:27:14	48	1763	470
13:27:14	53	1763	478
13:27:14	63	1761	486
13:27:14	63	1762	490
13:27:14	62	1762	487
13:27:14	64	1762	491
13:27:14	64	1761	496
13:27:14	65	1763	495
13:27:14	64	1762	491
13:27:14	67	1764	498
13:27:14	68	1762	502
13:27:14	69	1755	498
13:27:14	66	1762	496
13:27:14	73	1761	496
13:27:14	75	1763	502
13:27:14	73	1760	501
13:27:14	69	1761	502
13:27:14	79	1763	502
13:27:14	75	1764	506
13:27:14	79	1762	511
13:27:14	77	1760	501
13:27:14	77	1762	500
13:27:14	80	1762	508
13:27:14	79	1762	508
13:27:14	80	1762	506
13:27:14	80	1762	511
13:27:14	79	1763	511
13:27:14	83	1762	511
13:27:14	77	1763	503
13:27:14	79	1761	503
13:27:14	80	1761	506
13:27:14	80	1762	505
13:27:14	79	1759	503
13:27:14	80	1763	522
13:27:14	80	1760	509
13:27:14	81	1761	511
13:27:14	78	1761	497
13:27:14	78	1751	503
13:27:14	80	1760	503
13:27:14	79	1761	504
13:27:14	80	1759	505
13:27:14	80	1762	511
13:27:14	80	1761	511
13:27:14	81	1760	511
13:27:14	80	1759	501
13:27:14	77	1762	496
13:27:14	76	1759	510
13:27:14	80	1761	510
13:27:14	80	1760	507
13:27:14	80	1761	507
13:27:14	80	1759	507
13:27:14	82	1762	499
13:27:14	77	1760	506
13:27:14	80	1759	510
13:27:14	75	1759	511
13:27:14	80	1762	511
13:27:14	80	1759	511
13:27:14	81	1762	511
13:27:14	80	1760	511
13:27:14	82	1762	526
13:27:14	79	1760	511
13:27:14	80	1760	510
13:27:14	79	1762	511
13:27:14	82	1760	526
13:27:14	0	1765	41
13:27:14	0	1763	109
13:27:14	0	1765	165
13:27:14	0	1763	212
13:27:14	0	1765	251
13:27:14	0	1763	278
13:27:14	0	1764	309
13:27:14	0	1763	335
13:27:14	0	1761	364
13:27:14	0	1764	379
13:27:14	0	1762	399
13:27:14	0	1762	411
13:27:14	5	1763	419
13:27:14	16	1762	432
13:27:14	20	1758	446
13:27:14	27	1765	448
13:27:14	33	1762	455
13:27:14	37	1762	458
13:27:14	42	1763	468
13:27:14	48	1764	466
13:27:14	48	1762	473
13:27:14	52	1761	477
13:27:14	55	1765	482
13:27:14	63	1764	485
13:27:14	62	1762	486
13:27:14	65	1762	491
13:27:14	67	1761	496
13:27:14	74	1762	497
13:27:14	69	1762	496
13:27:14	75	1763	496
13:27:14	71	1762	503
13:27:14	73	1763	497
13:27:14	75	1762	504
13:27:14	78	1762	506
13:27:14	80	1765	511
13:27:14	79	1761	511
13:27:14	80	1762	511
13:27:14	80	1764	511
13:27:14	81	1762	528
13:27:14	84	1765	511
13:27:14	82	1765	523
13:27:14	82	1764	511
13:27:14	84	1762	524
13:27:14	86	1765	511
13:27:14	86	1762	525
13:27:14	86	1763	526
13:27:14	87	1765	525
13:27:14	86	1764	528
13:27:14	0	1766	42
13:27:14	0	1765	112
13:27:14	0	1765	165
13:27:14	0	1767	214
13:27:14	0	1767	252
13:27:14	0	1766	287
13:27:14	0	1765	317
13:27:14	0	1765	340
13:27:14	0	1763	363
13:27:14	0	1764	381
13:27:14	0	1767	398
13:27:14	0	1765	410
13:27:14	7	1770	425
13:27:14	15	1763	432
13:27:14	16	1765	443
13:27:14	26	1762	449
13:27:14	34	1767	455
13:27:14	38	1763	461
13:27:14	42	1765	465
13:27:14	48	1763	479
13:27:14	48	1765	474
13:27:14	53	1765	482
13:27:14	55	1762	486
13:27:14	59	1763	489
13:27:14	64	1763	495
13:27:14	66	1761	499
13:27:14	67	1761	499
13:27:14	66	1761	501
13:27:14	64	1762	498
13:27:14	67	1763	497
13:27:14	70	1761	502
13:27:14	71	1761	506
13:27:14	74	1761	525
13:27:14	78	1761	507
13:27:14	78	1762	506
13:27:14	0	1761	38
13:27:14	0	1765	112
13:27:14	0	1761	166
13:27:14	0	1759	212
13:27:14	0	1762	245
13:27:14	0	1763	281
13:27:14	0	1761	311
13:27:14	0	1760	335
13:27:14	0	1762	366
13:27:14	0	1761	381
13:27:14	0	1761	397
13:27:14	2	1762	406
13:27:14	3	1757	416
13:27:14	10	1761	428
13:27:14	22	1760	439
13:27:14	30	1759	450
13:27:14	33	1762	454
13:27:14	37	1760	461
13:27:14	45	1759	469
13:27:14	48	1761	467
13:27:14	48	1760	469
13:27:14	55	1761	479
13:27:14	59	1761	485
13:27:14	62	1763	485
13:27:14	62	1763	490
13:27:14	64	1761	492
13:27:14	66	1762	495
13:27:14	66	1761	496
13:27:14	71	1761	496
13:27:14	65	1763	497
13:27:14	71	1763	499
13:27:14	75	1762	503
13:27:14	71	1762	495
13:27:14	71	1761	496
13:27:14	73	1762	503
13:27:14	78	1763	503
13:27:14	78	1762	503
13:27:14	78	1761	511
13:27:14	78	1762	508
13:27:14	80	1762	511
13:27:14	74	1761	499
13:27:14	78	1763	511
13:27:14	80	1762	501
13:27:14	80	1759	508
13:27:14	78	1761	494
13:27:14	74	1762	510
13:27:14	80	1761	511
13:27:14	79	1761	511
13:27:14	77	1763	506
13:27:14	80	1765	511
13:27:14	78	1762	508
13:27:14	80	1761	511
13:27:14	80	1762	506
13:27:14	78	1761	507
13:27:14	79	1762	509
13:27:14	77	1761	511
13:27:14	75	1760	511
13:27:14	78	1763	525
13:27:14	79	1759	511
13:27:14	80	1765	525
13:27:14	73	1759	509
13:27:14	79	1760	510
13:27:14	79	1759	511
13:27:14	75	1761	511
13:27:14	79	1759	511
13:27:14	80	1759	528
13:27:14	80	1760	522
13:27:14	80	1762	527
13:27:14	0	1762	46
13:27:14	0	1760	111
13:27:14	0	1763	176
13:27:14	0	1762	217
13:27:14	0	1763	261
13:27:14	0	1765	291
13:27:14	0	1764	323
13:27:14	0	1766	336
13:27:14	0	1764	357
13:27:14	0	1760	384
13:27:14	0	1761	397
13:27:14	0	1761	411
13:27:14	0	1765	428
13:27:14	16	1762	432
13:27:14	22	1763	445
13:27:14	23	1762	446
13:27:14	29	1763	444
13:27:14	33	1763	465
13:27:14	42	1760	465
13:27:14	46	1761	471
13:27:14	48	1763	475
13:27:14	44	1762	479
13:27:14	59	1765	471
13:27:14	57	1761	480
13:27:14	58	1760	481
13:27:14	62	1761	485
13:27:14	61	1759	487
13:27:14	64	1760	496
13:27:14	69	1760	496
13:27:14	70	1760	495
13:27:14	69	1762	490
13:27:14	66	1761	495
13:27:14	65	1761	496
13:27:14	66	1760	498
13:27:14	67	1760	500
13:27:14	71	1761	506
13:27:14	75	1762	502
13:27:14	78	1759	509
13:27:14	80	1761	499
13:27:14	75	1762	506
13:27:14	76	1760	508
13:27:14	75	1759	511
13:27:14	80	1761	511
13:27:14	80	1762	509
13:27:14	82	1762	526
13:27:14	81	1762	511
13:27:14	80	1763	525
13:27:14	0	1766	38
13:27:14	0	1767	111
13:27:14	0	1756	165
13:27:14	0	1765	210
13:27:14	0	1765	251
13:27:14	0	1766	287
13:27:14	0	1763	313
13:27:14	0	1767	337
13:27:14	0	1765	363
13:27:14	0	1762	379
13:27:14	0	1766	394
13:27:14	0	1763	407
13:27:14	13	1761	422
13:27:14	16	1765	432
13:27:14	22	1763	442
13:27:14	34	1766	450
13:27:14	34	1765	453
13:27:14	41	1762	463
13:27:14	46	1763	464
13:27:14	48	1765	469
13:27:14	54	1764	474
13:27:14	55	1763	477
13:27:14	58	1761	483
13:27:14	63	1760	485
13:27:14	64	1768	489
13:27:14	65	1762	491
13:27:14	65	1760	491
13:27:14	65	1762	495
13:27:14	66	1763	494
13:27:14	69	1762	497
13:27:14	69	1761	499
13:27:14	70	1760	501
13:27:14	74	1761	503
13:27:14	77	1761	507
13:27:14	77	1762	508
13:27:14	80	1764	506
13:27:14	80	1762	511
13:27:14	81	1763	523
13:27:14	80	1763	507
13:27:14	80	1762	510
13:27:14	78	1762	511
13:27:14	80	1762	523
13:27:14	80	1762	511
13:27:14	82	1762	525
13:27:14	82	1761	524
13:27:14	0	1765	53
13:27:14	0	1763	112
13:27:14	0	1761	162
13:27:14	0	1765	214
13:27:14	0	1762	249
13:27:14	0	1762	284
13:27:14	0	1763	320
13:27:14	0	1763	342
13:27:14	0	1767	365
13:27:14	0	1763	382
13:27:14	0	1763	397
13:27:14	3	1761	408
13:27:14	2	1744	421
13:27:14	14	1762	427
13:27:14	21	1763	443
13:27:14	26	1761	450
13:27:14	29	1761	457
13:27:14	37	1762	464
13:27:14	43	1759	477
13:27:14	48	1763	471
13:27:14	47	1763	467
13:27:14	50	1760	473
13:27:14	55	1761	484
13:27:14	59	1762	478
13:27:14	59	1761	490
13:27:14	66	1761	493
13:27:14	68	1761	495
13:27:14	70	1762	498
13:27:14	64	1762	491
13:27:14	69	1762	495
13:27:14	74	1762	496
13:27:14	75	1761	499
13:27:14	74	1760	498
13:27:14	75	1761	507
13:27:14	76	1762	500
13:27:14	79	1763	506
13:27:14	73	1763	496
13:27:14	71	1762	499
13:27:14	78	1763	509
13:27:14	80	1762	510
13:27:14	78	1761	509
13:27:14	80	1761	511
13:27:14	80	1763	511
13:27:14	80	1761	511
13:27:14	78	1763	506
13:27:14	80	1761	511
13:27:14	78	1760	530
13:27:14	80	1761	511
13:27:14	81	1762	511
13:27:14	80	1761	511
13:27:14	81	1761	522
13:27:14	83	1763	523
13:27:14	77	1762	510
13:27:14	0	1765	75
13:27:14	0	1763	134
13:27:14	0	1763	187
13:27:14	0	1762	233
13:27:14	0	1763	262
13:27:14	0	1762	300
13:27:14	0	1760	325
13:27:14	0	1760	353
13:27:14	0	1760	369
13:27:14	0	1759	388
13:27:14	6	1760	402
13:27:14	11	1759	415
13:27:14	17	1762	430
13:27:14	24	1765	437
13:27:14	30	1761	447
13:27:14	33	1763	454
13:27:14	38	1767	459
13:27:14	46	1761	465
13:27:14	48	1760	470
13:27:14	53	1760	474
13:27:14	51	1760	479
13:27:14	59	1761	482
13:27:14	63	1761	487
13:27:14	64	1762	489
13:27:14	63	1762	492
13:27:14	68	1763	493
13:27:14	69	1763	495
13:27:14	61	1762	496
13:27:14	72	1761	496
13:27:14	73	1763	499
13:27:14	71	1762	501
13:27:14	74	1762	507
13:27:14	77	1763	509
13:27:14	77	1762	511
13:27:14	78	1763	511
13:27:14	79	1763	511
13:27:14	80	1764	511
13:27:14	80	1762	511
13:27:14	80	1763	511
13:27:14	80	1763	511
13:27:14	80	1762	523
13:27:14	80	1763	522
13:27:14	83	1762	511
13:27:14	81	1761	523
13:27:14	0	1763	45
13:27:14	0	1763	111
13:27:14	0	1763	173
13:27:14	0	1766	212
13:27:14	0	1762	247
13:27:14	0	1762	285
13:27:14	0	1763	310
13:27:14	0	1761	339
13:27:14	0	1763	362
13:27:14	0	1762	377
13:27:14	0	1761	394
13:27:14	1	1756	406
13:27:14	1	1761	418
13:27:14	14	1761	427
13:27:14	16	1760	450
13:27:14	27	1761	448
13:27:14	42	1761	452
13:27:14	38	1761	455
13:27:14	46	1763	465
13:27:14	48	1761	469
13:27:14	48	1762	466
13:27:14	49	1762	470
13:27:14	53	1759	487
13:27:14	59	1760	482
13:27:14	64	1761	484
13:27:14	64	1760	491
13:27:14	64	1762	495
13:27:14	70	1761	496
13:27:14	65	1761	491
13:27:14	64	1760	489
13:27:14	67	1759	490
13:27:14	65	1760	496
13:27:14	68	1761	496
13:27:14	73	1760	510
13:27:14	71	1759	505
13:27:14	75	1761	511
13:27:14	73	1762	498
13:27:14	71	1759	505
13:27:14	77	1759	506
13:27:14	74	1759	506
13:27:14	71	1761	510
13:27:14	80	1761	511
13:27:14	79	1760	511
13:27:14	80	1761	511
13:27:14	78	1762	509
13:27:14	80	1761	507
13:27:14	79	1760	510
13:27:14	80	1761	511
13:27:14	0	1765	49
13:27:14	0	1763	122
13:27:14	0	1763	173
13:27:14	0	1750	223
13:27:14	0	1762	250
13:27:14	0	1762	285
13:27:14	0	1763	320
13:27:14	0	1764	347
13:27:14	0	1762	368
13:27:14	0	1765	391
13:27:14	1	1764	400
13:27:14	9	1764	418
13:27:14	11	1762	422
13:27:14	18	1761	434
13:27:14	24	1763	448
13:27:14	32	1763	455
13:27:14	34	1762	464
13:27:14	45	1761	471
13:27:14	47	1761	474
13:27:14	50	1762	480
13:27:14	52	1762	479
13:27:14	57	1762	486
13:27:14	64	1761	487
13:27:14	31	1762	325
13:27:14	29	1762	353
13:27:14	27	1763	369
13:27:14	31	1764	392
13:27:14	27	1761	400
13:27:14	23	1757	413
13:27:14	27	1761	426
13:27:14	34	1762	436
13:27:14	42	1761	453
13:27:14	47	1763	464
13:27:14	47	1761	466
13:27:14	52	1764	479
13:27:14	51	1762	476
13:27:14	55	1761	481
13:27:14	57	1760	486
13:27:14	59	1762	490
13:27:14	64	1761	491
13:27:14	67	1760	498
13:27:14	70	1761	499
13:27:14	71	1762	506
13:27:14	71	1760	507
13:27:14	76	1762	503
13:27:14	78	1761	511
13:27:14	11	1763	193
13:27:15	2	1762	233
13:27:15	2	1762	275
13:27:15	3	1762	306
13:27:15	6	1763	325
13:27:15	2	1764	352
13:27:15	2	1762	371
13:27:15	14	1761	395
13:27:15	16	1761	406
13:27:15	21	1761	428
13:27:15	31	1763	434
13:27:15	34	1762	448
13:27:15	42	1764	445
13:27:15	43	1761	457
13:27:15	48	1762	465
13:27:15	49	1762	469
13:27:15	48	1763	478
13:27:15	53	1760	481
13:27:15	60	1762	496
13:27:15	64	1760	494
13:27:15	65	1763	498
13:27:15	65	1762	496
13:27:15	65	1765	503
13:27:15	0	1765	39
13:27:15	0	1765	112
13:27:15	0	1775	167
13:27:15	0	1776	217
13:27:15	0	1766	257
13:27:15	0	1767	295
13:27:15	0	1765	310
13:27:15	0	1764	339
13:27:15	0	1765	363
13:27:15	0	1766	383
13:27:15	0	1766	403
13:27:15	3	1766	419
13:27:15	7	1765	432
13:27:15	16	1765	445
13:27:15	16	1763	442
13:27:15	25	1764	448
13:27:15	30	1764	455
13:27:15	39	1765	463
13:27:15	41	1762	464
13:27:15	50	1764	479
13:27:15	49	1762	481
13:27:15	60	1763	487
13:27:15	54	1762	479
13:27:15	60	1765	481
13:27:15	58	1765	486
13:27:15	58	1762	490
13:27:15	65	1761	496
13:27:15	70	1765	502
13:27:15	70	1760	496
13:27:15	74	1763	501
13:27:15	66	1758	496
13:27:15	69	1761	496
13:27:15	65	1763	497
13:27:15	70	1761	496
13:27:15	77	1761	504
13:27:15	74	1761	502
13:27:15	74	1761	505
13:27:15	79	1761	498
13:27:15	69	1751	497
13:27:15	73	1761	500
13:27:15	73	1759	499
13:27:15	70	1760	499
13:27:15	71	1761	509
13:27:15	80	1762	507
13:27:15	78	1762	507
13:27:15	80	1762	501
13:27:15	71	1761	502
13:27:15	75	1761	505
13:27:15	73	1763	508
13:27:15	70	1762	510
13:27:15	75	1760	507
13:27:15	80	1760	505
13:27:15	77	1759	509
13:27:15	80	1762	499
13:27:15	71	1761	501
13:27:15	80	1761	503
13:27:15	77	1761	511
13:27:15	75	1761	509
13:27:15	73	1760	508
13:27:15	80	1762	507
13:27:15	79	1761	511
13:27:15	80	1760	501
13:27:15	74	1757	505
13:27:15	75	1759	502
13:27:15	79	1760	503
13:27:15	80	1759	511
13:27:15	80	1760	511
13:27:15	82	1759	511
13:27:15	80	1761	511
13:27:15	80	1760	503
13:27:15	78	1760	506
13:27:15	80	1770	511
13:27:15	80	1759	511
13:27:15	81	1760	511
13:27:15	82	1757	511
13:27:15	80	1760	511
13:27:15	81	1759	511
13:27:15	80	1765	510
13:27:15	79	1760	507
13:27:15	80	1762	507
13:27:15	81	1759	511
13:27:15	76	1762	511
13:27:15	81	1768	511
13:27:15	83	1765	511
13:27:15	84	1761	511
13:27:15	80	1760	505
13:27:15	78	1760	506
13:27:15	80	1761	511
13:27:15	81	1755	511
13:27:15	80	1760	509
13:27:15	80	1761	511
13:27:15	80	1759	509
13:27:15	80	1764	511
13:27:15	76	1763	502
13:27:15	80	1759	501
13:27:15	79	1762	507
13:27:15	80	1761	510
13:27:15	80	1761	510
13:27:15	80	1761	511
13:27:15	80	1759	511
13:27:15	80	1761	511
13:27:15	77	1759	503
13:27:15	77	1759	506
13:27:15	80	1759	511
13:27:15	80	1759	509
13:27:15	80	1760	511
13:27:15	80	1761	509
13:27:15	80	1760	509
13:27:15	80	1762	511
13:27:15	75	1761	503
13:27:15	77	1761	496
13:27:15	76	1761	511
13:27:15	79	1759	510
13:27:15	80	1760	510
13:27:15	80	1761	511
13:27:15	80	1762	507
13:27:15	82	1761	500
13:27:15	79	1760	503
13:27:15	78	1761	503
13:27:15	79	1760	510
13:27:15	80	1761	509
13:27:15	80	1761	510
13:27:15	82	1761	510
13:27:15	69	1760	508
13:27:15	81	1761	501
13:27:15	80	1761	503
13:27:15	75	1760	502
13:27:15	79	1759	510
13:27:15	80	1760	511
13:27:15	80	1759	508
13:27:15	81	1761	507
13:27:15	80	1761	510
13:27:15	80	1761	502
13:27:15	78	1764	503
13:27:15	79	1763	507
13:27:15	79	1761	511
13:27:15	80	1760	509
13:27:15	80	1761	511
13:27:15	80	1761	510
13:27:15	80	1761	509
13:27:15	80	1760	503
13:27:15	80	1761	505
13:27:15	78	1761	503
13:27:15	80	1761	507
13:27:15	81	1757	510
13:27:15	82	1761	509
13:27:15	81	1762	511
13:27:15	82	1760	511
13:27:15	80	1761	499
13:27:15	80	1759	503
13:27:15	76	1759	506
13:27:15	80	1759	511
13:27:15	83	1759	509
13:27:15	80	1762	511
13:27:15	80	1761	510
13:27:15	81	1759	511
13:27:15	78	1761	504
13:27:15	80	1760	506
13:27:15	79	1761	506
13:27:15	80	1761	511
13:27:15	80	1760	511
13:27:15	80	1758	511
13:27:15	80	1759	511
13:27:15	81	1763	511
13:27:15	79	1761	503
13:27:15	80	1762	506
13:27:15	75	1759	504
13:27:15	77	1760	511
13:27:15	80	1759	505
13:27:15	80	1760	511
13:27:15	82	1761	511
13:27:15	80	1761	511
13:27:15	75	1760	505
13:27:15	76	1761	502
13:27:15	80	1761	511
13:27:15	79	1761	510
13:27:15	64	1759	511
13:27:15	66	1762	511
13:27:15	78	1760	511
13:27:15	80	1763	511
13:27:15	76	1759	502
13:27:15	74	1761	505
13:27:15	75	1759	511
13:27:15	78	1759	510
13:27:15	77	1760	509
13:27:15	80	1759	511
13:27:15	78	1759	509
13:27:15	80	1762	511
13:27:15	78	1757	504
13:27:15	79	1762	503
13:27:15	76	1761	511
13:27:15	76	1760	510
13:27:15	80	1759	511
13:27:15	81	1761	507
13:27:15	83	1759	511
13:27:15	80	1762	501
13:27:15	74	1761	502
13:27:15	77	1760	501
13:27:15	80	1762	511
13:27:15	80	1762	509
13:27:15	80	1761	507
13:27:15	81	1759	508
13:27:15	80	1759	508
13:27:15	81	1760	501
13:27:15	80	1760	505
13:27:15	75	1760	511
13:27:15	80	1761	510
13:27:15	80	1760	502
13:27:15	80	1759	507
13:27:15	80	1760	508
13:27:15	80	1761	511
13:27:15	78	1763	503
13:27:15	77	1759	503
13:27:15	78	1760	506
13:27:15	80	1767	502
13:27:15	79	1759	509
13:27:15	79	1760	511
13:27:15	80	1760	507
13:27:15	77	1759	510
13:27:15	75	1760	506
13:27:15	77	1761	505
13:27:15	79	1760	505
13:27:15	81	1760	511
13:27:15	80	1759	511
13:27:15	79	1759	510
13:27:15	80	1760	511
13:27:15	80	1761	511
13:27:15	80	1761	511
13:27:15	80	1761	506
13:27:15	80	1760	511
13:27:15	81	1760	524
13:27:15	80	1760	523
13:27:15	80	1762	525
13:27:15	80	1761	511
13:27:15	80	1761	511
13:27:15	84	1760	511
13:27:15	80	1762	511
13:27:15	80	1761	511
13:27:15	0	1765	79
13:27:15	0	1761	143
13:27:15	0	1762	192
13:27:15	0	1762	240
13:27:15	0	1762	273
13:27:15	0	1763	305
13:27:15	0	1763	333
13:27:15	0	1760	356
13:27:15	0	1763	369
13:27:15	0	1762	389
13:27:15	5	1762	400
13:27:15	16	1761	421
13:27:15	18	1762	432
13:27:15	25	1765	443
13:27:15	33	1761	457
13:27:15	38	1761	449
13:27:15	42	1761	462
13:27:15	45	1763	464
13:27:15	48	1762	477
13:27:15	52	1759	480
13:27:15	59	1761	481
13:27:15	50	1763	485
13:27:15	61	1763	490
13:27:15	64	1761	495
13:27:15	64	1762	491
13:27:15	64	1760	490
13:27:15	65	1761	493
13:27:15	66	1762	498
13:27:15	67	1760	496
13:27:15	69	1761	502
13:27:15	69	1763	497
13:27:15	74	1762	505
13:27:15	67	1761	496
13:27:15	71	1765	511
13:27:15	71	1760	499
13:27:15	70	1747	505
13:27:15	73	1759	501
13:27:15	74	1762	509
13:27:15	74	1760	501
13:27:15	74	1761	503
13:27:15	74	1761	507
13:27:15	79	1763	511
13:27:15	75	1763	511
13:27:15	80	1762	511
13:27:15	79	1761	511
13:27:15	80	1763	511
13:27:15	80	1760	511
13:27:15	81	1761	511
13:27:15	82	1761	524
13:27:15	82	1762	524
13:27:15	83	1762	511
13:27:15	82	1761	525
13:27:15	84	1762	525
13:27:15	85	1763	523
13:27:15	85	1761	511
13:27:15	85	1761	526
13:27:15	0	1765	45
13:27:15	0	1763	109
13:27:15	0	1765	165
13:27:15	0	1765	210
13:27:15	0	1766	247
13:27:15	0	1764	282
13:27:15	0	1767	310
13:27:15	0	1765	339
13:27:15	0	1761	363
13:27:15	0	1766	380
13:27:15	0	1763	395
13:27:15	1	1765	407
13:27:15	5	1764	421
13:27:15	13	1762	432
13:27:15	18	1773	438
13:27:15	26	1763	448
13:27:15	32	1771	454
13:27:15	41	1763	460
13:27:15	43	1763	464
13:27:15	45	1756	470
13:27:15	48	1764	467
13:27:15	48	1761	467
13:27:15	52	1761	478
13:27:15	59	1761	484
13:27:15	64	1762	485
13:27:15	63	1762	495
13:27:15	64	1762	493
13:27:15	64	1762	496
13:27:15	64	1761	487
13:27:15	64	1760	492
13:27:15	64	1766	499
13:27:15	69	1763	501
13:27:15	70	1763	499
13:27:15	74	1766	500
13:27:15	75	1763	502
13:27:15	74	1762	504
13:27:15	75	1762	506
13:27:15	76	1765	510
13:27:15	76	1762	510
13:27:15	79	1763	511
13:27:15	80	1764	511
13:27:15	80	1762	511
13:27:15	80	1763	511
13:27:15	80	1763	511
13:27:15	81	1763	511
13:27:15	81	1765	524
13:27:15	0	1764	41
13:27:15	0	1766	108
13:27:15	0	1765	161
13:27:15	0	1767	209
13:27:15	0	1764	250
13:27:15	0	1763	290
13:27:15	0	1764	313
13:27:15	0	1763	338
13:27:15	0	1762	357
13:27:15	0	1763	378
13:27:15	0	1765	396
13:27:15	0	1763	405
13:27:15	7	1762	418
13:27:15	16	1763	430
13:27:15	17	1763	437
13:27:15	26	1763	448
13:27:15	31	1762	454
13:27:15	37	1763	464
13:27:15	45	1763	467
13:27:15	48	1765	477
13:27:15	50	1763	480
13:27:15	59	1765	486
13:27:15	63	1763	491
13:27:15	64	1765	496
13:27:15	64	1763	496
13:27:15	68	1764	499
13:27:15	70	1765	503
13:27:15	71	1767	507
13:27:15	73	1763	506
13:27:15	75	1766	510
13:27:15	76	1766	511
13:27:15	80	1763	511
13:27:15	80	1765	511
13:27:15	80	1765	511
13:27:15	0	1763	42
13:27:15	0	1767	109
13:27:15	0	1766	173
13:27:15	0	1763	208
13:27:15	0	1764	247
13:27:15	0	1763	282
13:27:15	0	1763	307
13:27:15	0	1765	339
13:27:15	0	1765	361
13:27:15	0	1763	378
13:27:15	0	1763	396
13:27:15	0	1762	410
13:27:15	6	1761	416
13:27:15	10	1763	428
13:27:15	22	1766	441
13:27:15	27	1763	448
13:27:15	33	1761	454
13:27:15	37	1765	462
13:27:15	42	1767	463
13:27:15	48	1765	470
13:27:15	47	1763	466
13:27:15	48	1761	475
13:27:15	53	1762	474
13:27:15	56	1763	478
13:27:15	56	1761	481
13:27:15	64	1763	490
13:27:15	64	1763	496
13:27:15	64	1759	493
13:27:15	63	1763	489
13:27:15	64	1763	495
13:27:15	64	1762	495
13:27:15	66	1762	496
13:27:15	68	1762	496
13:27:15	67	1761	499
13:27:15	72	1762	500
13:27:15	80	1762	506
13:27:15	67	1760	495
13:27:15	80	1761	506
13:27:15	73	1759	501
13:27:15	75	1762	506
13:27:15	71	1759	497
13:27:15	71	1763	505
13:27:15	77	1759	501
13:27:15	71	1763	508
13:27:15	68	1766	499
13:27:15	75	1761	510
13:27:15	77	1760	506
13:27:15	76	1762	509
13:27:15	71	1761	496
13:27:15	74	1764	511
13:27:15	75	1762	506
13:27:15	77	1762	511
13:27:15	76	1761	498
13:27:15	79	1761	510
13:27:15	75	1761	503
13:27:15	77	1762	509
13:27:15	75	1763	496
13:27:15	74	1762	506
13:27:15	76	1762	505
13:27:15	75	1761	508
13:27:15	75	1766	507
13:27:15	80	1763	510
13:27:15	79	1763	507
13:27:15	80	1763	511
13:27:15	76	1763	507
13:27:15	78	1762	510
13:27:15	78	1761	511
13:27:15	80	1761	511
13:27:15	79	1761	511
13:27:15	80	1761	528
13:27:15	83	1760	511
13:27:15	80	1763	525
13:27:15	80	1763	510
13:27:15	80	1761	510
13:27:15	80	1761	511
13:27:15	0	1763	43
13:27:15	0	1767	112
13:27:15	0	1759	168
13:27:15	0	1765	218
13:27:15	0	1762	254
13:27:15	0	1761	288
13:27:15	0	1763	318
13:27:15	0	1762	347
13:27:15	0	1763	366
13:27:15	0	1763	385
13:27:15	0	1763	391
13:27:15	1	1763	403
13:27:15	7	1763	424
13:27:15	10	1763	436
13:27:15	19	1762	440
13:27:15	31	1761	454
13:27:15	37	1763	459
13:27:15	43	1762	464
13:27:15	42	1763	464
13:27:15	48	1761	465
13:27:15	48	1762	477
13:27:15	55	1762	479
13:27:15	59	1763	482
13:27:15	64	1762	485
13:27:15	62	1760	487
13:27:15	66	1761	490
13:27:15	65	1762	493
13:27:15	69	1765	494
13:27:15	67	1763	496
13:27:15	69	1763	502
13:27:15	70	1765	500
13:27:15	71	1766	498
13:27:15	74	1763	503
13:27:15	77	1765	509
13:27:15	73	1761	501
13:27:15	71	1763	503
13:27:15	71	1763	506
13:27:15	75	1762	510
13:27:15	77	1761	511
13:27:15	79	1763	525
13:27:15	80	1762	510
13:27:15	80	1763	524
13:27:15	75	1762	505
13:27:15	77	1762	509
13:27:15	81	1760	511
13:27:15	80	1762	511
13:27:15	0	1766	42
13:27:15	0	1764	116
13:27:15	0	1767	166
13:27:15	0	1764	209
13:27:15	0	1766	255
13:27:15	0	1765	293
13:27:15	0	1766	318
13:27:15	0	1761	337
13:27:15	0	1767	362
13:27:15	0	1765	386
13:27:15	0	1767	397
13:27:15	0	1765	409
13:27:15	7	1765	421
13:27:15	13	1765	443
13:27:15	22	1765	438
13:27:15	30	1767	450
13:27:15	34	1763	462
13:27:15	42	1766	470
13:27:15	47	1767	474
13:27:15	51	1765	479
13:27:15	56	1763	484
13:27:15	61	1764	496
13:27:15	64	1766	494
13:27:15	67	1764	496
13:27:15	68	1766	498
13:27:15	70	1765	504
13:27:15	74	1765	502
13:27:15	78	1765	506
13:27:15	79	1764	511
13:27:15	80	1766	510
13:27:15	79	1764	511
13:27:15	82	1766	511
13:27:15	0	1763	62
13:27:15	0	1763	126
13:27:15	0	1758	181
13:27:15	0	1753	225
13:27:15	0	1763	261
13:27:15	0	1763	289
13:27:15	0	1762	333
13:27:15	0	1763	348
13:27:15	0	1766	368
13:27:15	0	1764	385
13:27:15	0	1763	405
13:27:15	6	1762	413
13:27:15	10	1766	419
13:27:15	16	1763	432
13:27:15	20	1761	438
13:27:15	27	1761	448
13:27:15	29	1761	453
13:27:15	39	1761	464
13:27:15	45	1765	469
13:27:15	48	1762	479
13:27:15	48	1761	469
13:27:15	53	1757	469
13:27:15	52	1761	480
13:27:15	55	1762	481
13:27:15	57	1761	483
13:27:15	64	1761	497
13:27:15	64	1760	495
13:27:15	66	1760	499
13:27:15	64	1762	494
13:27:15	65	1761	495
13:27:15	69	1760	496
13:27:15	66	1761	496
13:27:15	71	1760	503
13:27:15	80	1761	501
13:27:15	74	1760	499
13:27:15	77	1762	506
13:27:15	70	1762	496
13:27:15	71	1759	496
13:27:15	74	1760	509
13:27:15	74	1761	503
13:27:15	80	1763	502
13:27:15	80	1761	510
13:27:15	78	1763	502
13:27:15	80	1762	508
13:27:15	75	1760	499
13:27:15	78	1760	500
13:27:15	73	1763	507
13:27:15	77	1762	505
13:27:15	76	1760	505
13:27:15	79	1763	508
13:27:15	78	1759	497
13:27:15	80	1762	511
13:27:15	73	1760	498
13:27:15	77	1760	503
13:27:15	75	1760	511
13:27:15	79	1761	511
13:27:15	77	1762	509
13:27:15	80	1762	525
13:27:15	80	1761	510
13:27:15	80	1761	511
13:27:15	80	1762	511
13:27:15	80	1761	526
13:27:15	80	1761	511
13:27:15	80	1763	511
13:27:15	80	1761	511
13:27:15	81	1763	511
13:27:15	80	1763	522
13:27:15	82	1762	524
13:27:15	81	1765	524
13:27:15	0	1766	67
13:27:15	0	1764	139
13:27:15	0	1764	186
13:27:15	0	1763	230
13:27:15	0	1763	263
13:27:15	0	1763	295
13:27:15	0	1762	322
13:27:15	0	1770	349
13:27:15	0	1767	368
13:27:15	0	1763	393
13:27:15	2	1759	402
13:27:15	10	1763	418
13:27:15	10	1762	421
13:27:15	15	1765	432
13:27:15	20	1763	439
13:27:15	28	1761	446
13:27:15	35	1763	458
13:27:15	39	1764	471
13:27:15	46	1762	473
13:27:15	50	1764	483
13:27:15	48	1765	475
13:27:15	54	1762	482
13:27:15	54	1763	488
13:27:15	61	1761	490
13:27:15	63	1761	497
13:27:15	65	1761	501
13:27:15	66	1760	501
13:27:15	70	1761	503
13:27:15	67	1761	496
13:27:15	69	1762	501
13:27:15	76	1763	511
13:27:15	75	1763	510
13:27:15	17	1763	258
13:27:15	16	1763	288
13:27:15	16	1765	319
13:27:15	11	1762	336
13:27:15	13	1764	358
13:27:15	20	1762	384
13:27:15	20	1761	399
13:27:15	23	1762	409
13:27:15	31	1763	427
13:27:15	33	1762	435
13:27:15	35	1763	448
13:27:15	37	1763	447
13:27:15	44	1762	458
13:27:15	45	1761	464
13:27:15	48	1763	470
13:27:15	52	1763	471
13:27:15	57	1761	485
13:27:15	61	1762	491
13:27:15	64	1762	496
13:27:15	64	1763	486
13:27:15	65	1763	493
13:27:15	65	1761	495
13:27:15	69	1762	497
13:27:15	69	1760	504
13:27:15	71	1759	502
13:27:15	75	1760	507
13:27:15	75	1763	506
13:27:15	45	1761	331
13:27:15	37	1761	354
13:27:15	31	1762	368
13:27:15	30	1763	385
13:27:15	34	1762	400
13:27:15	37	1762	419
13:27:15	39	1763	430
13:27:15	45	1762	439
13:27:15	46	1761	450
13:27:15	48	1763	461
13:27:15	48	1763	459
13:27:15	49	1763	465
13:27:15	54	1762	470
13:27:15	56	1761	478
13:27:15	61	1763	483
13:27:15	64	1763	491
13:27:15	65	1763	491
13:27:15	66	1763	496
13:27:15	71	1763	491
13:27:15	67	1761	496
13:27:15	75	1765	497
13:27:15	74	1763	501
13:27:15	368	1765	57
13:27:15	322	1760	117
13:27:15	286	1767	165
13:27:15	258	1767	202
13:27:15	237	1767	242
13:27:15	215	1766	277
13:27:15	199	1766	298
13:27:15	189	1775	321
13:27:15	177	1764	342
13:27:15	176	1765	363
13:27:15	167	1766	381
13:27:15	163	1766	398
13:27:15	161	1757	407
13:27:15	157	1764	419
13:27:15	152	1766	427
13:27:15	153	1763	434
13:27:15	150	1764	443
13:27:15	148	1764	453
13:27:15	146	1764	455
13:27:15	150	1766	465
13:27:15	151	1764	471
13:27:15	153	1763	479
13:27:15	148	1763	475
13:27:15	150	1765	477
13:27:15	150	1765	481
13:27:15	150	1762	484
13:27:15	159	1762	494
13:27:15	154	1760	497
13:27:15	157	1762	502
13:27:15	155	1763	500
13:27:15	154	1765	496
13:27:15	153	1761	496
13:27:15	158	1763	502
13:27:15	157	1762	504
13:27:15	157	1762	506
13:27:15	159	1764	510
13:27:15	158	1762	507
13:27:15	161	1763	511
13:27:15	156	1764	508
13:27:15	155	1762	507
13:27:15	154	1762	508
13:27:15	161	1763	511
13:27:15	159	1763	511
13:27:15	164	1763	525
13:27:15	159	1762	510
13:27:15	165	1761	511
13:27:15	157	1761	511
13:27:15	158	1762	511
13:27:15	160	1762	511
13:27:15	158	1761	510
13:27:15	160	1763	521
13:27:15	160	1760	511
13:27:15	163	1761	511
13:27:15	160	1763	511
13:27:15	161	1762	509
13:27:15	160	1761	525
13:27:15	161	1760	511
13:27:15	160	1761	522
13:27:15	160	1763	523
13:27:15	162	1762	524
13:27:15	159	1763	523
13:27:15	155	1762	511
13:27:15	156	1762	510
13:27:15	155	1761	511
13:27:15	157	1761	511
13:27:15	154	1763	511
13:27:15	158	1761	525
13:27:15	155	1762	511
13:27:15	156	1763	526
13:27:15	154	1763	511
13:27:15	155	1764	511
13:27:15	151	1761	511
13:27:15	154	1762	528
13:27:15	158	1762	511
13:27:15	157	1760	511
13:27:15	159	1761	511
13:27:15	152	1749	511
13:27:15	154	1766	511
13:27:15	156	1765	511
13:27:15	149	1763	523
13:27:15	155	1760	511
13:27:15	153	1762	509
13:27:15	154	1762	511
13:27:15	151	1767	511
13:27:15	153	1763	511
13:27:15	151	1763	511
13:27:15	149	1765	511
13:27:15	150	1762	511
13:27:15	149	1762	511
13:27:15	149	1761	511
13:27:15	146	1763	511
13:27:15	145	1762	511
13:27:15	146	1760	511
13:27:15	146	1757	511
13:27:15	147	1762	511
13:27:15	145	1763	511
13:27:15	144	1761	511
13:27:15	144	1762	511
13:27:15	144	1763	511
13:27:15	144	1761	511
13:27:15	143	1763	511
13:27:15	144	1763	511
13:27:15	144	1765	511
13:27:15	142	1761	511
13:27:15	144	1762	509
13:27:15	143	1762	511
13:27:15	144	1763	511
13:27:15	142	1765	511
13:27:15	144	1762	511
13:27:15	148	1759	527
13:27:15	142	1761	528
13:27:15	142	1763	511
13:27:15	142	1763	511
13:27:15	139	1762	511
13:27:15	139	1762	511
13:27:15	141	1761	521
13:27:15	136	1763	510
13:27:15	138	1762	511
13:27:15	135	1763	511
13:27:15	138	1763	528
13:27:15	139	1762	511
13:27:15	139	1762	511
13:27:15	137	1761	523
13:27:15	139	1762	524
13:27:15	135	1762	510
13:27:15	134	1761	511
13:27:15	133	1763	510
13:27:15	137	1762	511
13:27:15	137	1762	511
13:27:15	137	1760	511
13:27:15	135	1763	511
13:27:15	136	1760	511
13:27:15	137	1759	511
13:27:15	135	1763	523
13:27:15	136	1764	526
13:27:15	137	1762	525
13:27:15	135	1760	523
13:27:15	137	1763	526
13:27:15	138	1762	525
13:27:15	138	1763	528
13:27:15	134	1763	511
13:27:15	137	1764	511
13:27:15	135	1762	526
13:27:15	138	1762	528
13:27:15	135	1763	528
13:27:15	139	1763	528
13:27:15	135	1763	528
13:27:15	135	1765	528
13:27:15	141	1763	511
13:27:15	394	1767	77
13:27:15	351	1767	130
13:27:15	304	1766	179
13:27:15	272	1769	218
13:27:15	250	1764	254
13:27:15	225	1766	275
13:27:15	209	1763	304
13:27:15	198	1765	327
13:27:15	189	1766	349
13:27:15	179	1767	368
13:27:15	176	1764	381
13:27:15	171	1766	398
13:27:15	167	1767	401
13:27:15	159	1765	416
13:27:15	161	1766	430
13:27:15	162	1763	435
13:27:15	160	1766	443
13:27:15	155	1764	463
13:27:15	160	1765	461
13:27:15	154	1765	464
13:27:15	157	1766	464
13:27:15	148	1765	477
13:27:15	158	1764	479
13:27:15	154	1763	486
13:27:15	157	1765	485
13:27:15	155	1761	496
13:27:15	157	1761	494
13:27:15	155	1764	496
13:27:15	152	1763	494
13:27:15	170	1765	414
13:27:15	169	1763	423
13:27:15	165	1763	436
13:27:15	163	1766	443
13:27:15	160	1765	457
13:27:15	159	1765	463
13:27:15	161	1763	464
13:27:15	158	1763	469
13:27:15	159	1762	480
13:27:15	160	1764	485
13:27:15	161	1763	490
13:27:15	161	1765	491
13:27:15	208	1765	336
13:27:15	198	1762	358
13:27:15	190	1765	378
13:27:15	178	1751	387
13:27:15	175	1763	406
13:27:15	174	1765	419
13:27:15	171	1763	434
13:27:15	164	1765	436
13:27:15	162	1763	448
13:27:15	163	1774	460
13:27:15	160	1763	464
13:27:15	183	1762	404
13:27:15	176	1762	412
13:27:15	176	1762	429
13:27:15	172	1774	439
13:27:15	173	1765	451
13:27:15	167	1764	449
13:27:15	162	1762	455
13:27:15	167	1762	468
13:27:15	166	1765	474
13:27:15	166	1762	479
13:27:15	167	1762	495
13:27:15	153	1763	489
13:27:15	170	1767	496
13:27:16	167	1766	493
13:27:16	166	1763	498
13:27:16	170	1761	500
13:27:16	167	1763	506
13:27:16	162	1764	501
13:27:16	162	1762	509
13:27:16	164	1764	511
13:27:16	163	1762	511
13:27:16	161	1763	511
13:27:16	162	1765	525
13:27:16	167	1762	511
13:27:16	163	1763	525
13:27:16	159	1762	511
13:27:16	165	1763	528
13:27:16	160	1762	524
13:27:16	162	1765	528
13:27:16	160	1763	511
13:27:16	163	1766	528
13:27:16	161	1763	528
13:27:16	163	1763	524
13:27:16	160	1762	511
13:27:16	167	1758	528
13:27:16	163	1762	527
13:27:16	162	1762	528
13:27:16	165	1762	528
13:27:16	165	1764	529
13:27:16	161	1763	529
13:27:16	163	1764	525
13:27:16	160	1763	526
13:27:16	162	1762	528
13:27:16	163	1762	528
13:27:16	163	1762	528
13:27:16	163	1761	528
13:27:16	166	1762	528
13:27:16	163	1763	528
13:27:16	165	1762	525
13:27:16	160	1763	526
13:27:16	160	1761	528
13:27:16	161	1761	525
13:27:16	159	1760	524
13:27:16	163	1762	528
13:27:16	163	1761	527
13:27:16	162	1764	528
13:27:16	161	1762	527
13:27:16	161	1762	526
13:27:16	161	1769	527
13:27:16	156	1762	523
13:27:16	158	1761	523
13:27:16	161	1761	528
13:27:16	160	1761	528
13:27:16	160	1760	527
13:27:16	157	1762	511
13:27:16	160	1760	522
13:27:16	157	1762	525
13:27:16	157	1761	529
13:27:16	159	1763	527
13:27:16	157	1761	528
13:27:16	158	1760	528
13:27:16	157	1761	528
13:27:16	154	1760	525
13:27:16	153	1764	524
13:27:16	153	1761	526
13:27:16	150	1760	527
13:27:16	149	1761	527
13:27:16	153	1760	528
13:27:16	153	1761	528
13:27:16	154	1759	531
13:27:16	147	1760	526
13:27:16	149	1754	511
13:27:16	150	1759	511
13:27:16	148	1759	511
13:27:16	146	1761	525
13:27:16	150	1761	530
13:27:16	147	1760	528
13:27:16	147	1762	530
13:27:16	144	1760	511
13:27:16	144	1760	525
13:27:16	144	1761	523
13:27:16	144	1760	511
13:27:16	139	1760	511
13:27:16	144	1761	528
13:27:16	144	1760	525
13:27:16	144	1761	528
13:27:16	142	1761	511
13:27:16	142	1759	511
13:27:16	142	1760	511
13:27:16	142	1760	511
13:27:16	139	1759	527
13:27:16	144	1761	527
13:27:16	144	1762	526
13:27:16	144	1763	510
13:27:16	140	1760	511
13:27:16	137	1760	511
13:27:16	141	1761	511
13:27:16	137	1758	511
13:27:16	141	1761	525
13:27:16	142	1760	511
13:27:16	140	1760	526
13:27:16	143	1759	509
13:27:16	139	1761	511
13:27:16	133	1759	511
13:27:16	134	1758	525
13:27:16	137	1760	525
13:27:16	138	1758	528
13:27:16	139	1761	511
13:27:16	139	1759	524
13:27:16	134	1760	507
13:27:16	133	1762	511
13:27:16	134	1758	511
13:27:16	135	1759	511
13:27:16	133	1760	511
13:27:16	133	1760	523
13:27:16	135	1761	511
13:27:16	134	1760	525
13:27:16	130	1759	510
13:27:16	134	1760	511
13:27:16	129	1758	511
13:27:16	134	1762	511
13:27:16	134	1760	511
13:27:16	134	1759	524
13:27:16	134	1760	511
13:27:16	131	1761	511
13:27:16	133	1760	511
13:27:16	131	1761	511
13:27:16	133	1760	523
13:27:16	131	1761	511
13:27:16	133	1759	511
13:27:16	133	1761	526
13:27:16	134	1762	511
13:27:16	134	1760	524
13:27:16	132	1761	525
13:27:16	134	1761	529
13:27:16	133	1761	528
13:27:16	133	1762	531
13:27:16	133	1762	522
13:27:16	133	1760	527
13:27:16	132	1762	525
13:27:16	135	1760	531
13:27:16	133	1764	527
13:27:16	134	1761	528
13:27:16	134	1761	533
13:27:16	133	1761	529
13:27:16	131	1762	528
13:27:16	133	1761	525
13:27:16	134	1761	528
13:27:16	400	1765	91
13:27:16	348	1765	144
13:27:16	309	1766	191
13:27:16	275	1765	227
13:27:16	251	1765	255
13:27:16	217	1765	288
13:27:16	208	1763	315
13:27:16	198	1763	341
13:27:16	187	1765	363
13:27:16	176	1762	368
13:27:16	176	1764	393
13:27:16	171	1765	405
13:27:16	162	1765	415
13:27:16	155	1762	426
13:27:16	156	1765	443
13:27:16	153	1763	449
13:27:16	150	1766	459
13:27:16	144	1764	464
13:27:16	145	1763	471
13:27:16	147	1763	477
13:27:16	144	1770	477
13:27:16	144	1762	481
13:27:16	147	1762	486
13:27:16	146	1763	495
13:27:16	147	1761	496
13:27:16	147	1761	498
13:27:16	145	1762	503
13:27:16	150	1762	511
13:27:16	147	1758	501
13:27:16	147	1761	508
13:27:16	147	1762	507
13:27:16	152	1761	511
13:27:16	151	1763	511
13:27:16	154	1763	525
13:27:16	149	1763	511
13:27:16	152	1762	526
13:27:16	149	1765	511
13:27:16	151	1765	527
13:27:16	147	1762	511
13:27:16	147	1765	528
13:27:16	144	1765	511
13:27:16	143	1762	527
13:27:16	145	1762	527
13:27:16	145	1764	526
13:27:16	144	1761	524
13:27:16	146	1763	528
13:27:16	144	1763	528
13:27:16	144	1765	529
13:27:16	144	1763	527
13:27:16	143	1763	528
13:27:16	144	1761	529
13:27:16	144	1763	528
13:27:16	144	1763	528
13:27:16	146	1761	531
13:27:16	146	1763	529
13:27:16	149	1763	533
13:27:16	145	1762	528
13:27:16	150	1761	531
13:27:16	149	1762	530
13:27:16	0	1766	43
13:27:16	0	1767	103
13:27:16	0	1767	154
13:27:16	0	1766	198
13:27:16	0	1770	235
13:27:16	0	1767	270
13:27:16	0	1767	290
13:27:16	0	1770	320
13:27:16	0	1767	336
13:27:16	0	1766	365
13:27:16	0	1770	377
13:27:16	2	1764	389
13:27:16	12	1765	403
13:27:16	16	1766	416
13:27:16	21	1767	427
13:27:16	28	1765	432
13:27:16	32	1766	445
13:27:16	38	1765	449
13:27:16	45	1763	458
13:27:16	48	1765	461
13:27:16	50	1766	464
13:27:16	53	1765	466
13:27:16	60	1765	472
13:27:16	62	1764	481
13:27:16	64	1766	478
13:27:16	66	1765	479
13:27:16	66	1763	484
13:27:16	68	1767	493
13:27:16	71	1765	489
13:27:16	74	1762	491
13:27:16	75	1766	494
13:27:16	77	1765	496
13:27:16	77	1765	496
13:27:16	79	1766	498
13:27:16	78	1764	494
13:27:16	77	1764	496
13:27:16	78	1763	496
13:27:16	75	1763	498
13:27:16	79	1763	507
13:27:16	84	1763	508
13:27:16	85	1763	502
13:27:16	85	1766	503
13:27:16	80	1765	496
13:27:16	80	1762	499
13:27:16	80	1763	499
13:27:16	83	1761	503
13:27:16	82	1762	507
13:27:16	87	1763	509
13:27:16	85	1761	507
13:27:16	89	1763	498
13:27:16	82	1765	502
13:27:16	83	1761	501
13:27:16	86	1763	503
13:27:16	90	1762	507
13:27:16	87	1761	507
13:27:16	89	1763	506
13:27:16	87	1762	509
13:27:16	87	1763	498
13:27:16	83	1762	499
13:27:16	85	1760	503
13:27:16	91	1762	511
13:27:16	89	1761	510
13:27:16	89	1762	507
13:27:16	91	1764	506
13:27:16	88	1761	509
13:27:16	90	1761	503
13:27:16	84	1763	506
13:27:16	85	1760	506
13:27:16	92	1760	511
13:27:16	90	1762	507
13:27:16	90	1763	509
13:27:16	89	1763	507
13:27:16	89	1763	510
13:27:16	84	1762	505
13:27:16	85	1762	506
13:27:16	85	1760	506
13:27:16	92	1762	511
13:27:16	91	1755	510
13:27:16	86	1762	510
13:27:16	87	1762	508
13:27:16	86	1762	511
13:27:16	84	1762	505
13:27:16	86	1762	506
13:27:16	91	1762	523
13:27:16	86	1763	510
13:27:16	86	1766	511
13:27:16	87	1759	501
13:27:16	83	1763	511
13:27:16	87	1763	508
13:27:16	82	1762	503
13:27:16	84	1763	503
13:27:16	89	1762	510
13:27:16	86	1762	510
13:27:16	86	1763	505
13:27:16	87	1762	511
13:27:16	86	1762	507
13:27:16	84	1763	511
13:27:16	81	1762	503
13:27:16	81	1762	502
13:27:16	82	1761	501
13:27:16	87	1760	510
13:27:16	85	1761	507
13:27:16	85	1767	511
13:27:16	86	1761	509
13:27:16	86	1765	511
13:27:16	82	1763	501
13:27:16	83	1763	503
13:27:16	83	1761	496
13:27:16	82	1761	503
13:27:16	86	1762	511
13:27:16	85	1762	511
13:27:16	85	1762	511
13:27:16	89	1763	523
13:27:16	82	1760	501
13:27:16	83	1761	507
13:27:16	82	1761	508
13:27:16	86	1763	509
13:27:16	85	1760	507
13:27:16	86	1762	507
13:27:16	86	1761	507
13:27:16	86	1763	501
13:27:16	82	1761	500
13:27:16	81	1761	503
13:27:16	88	1762	502
13:27:16	87	1761	507
13:27:16	84	1761	506
13:27:16	86	1761	506
13:27:16	85	1761	506
13:27:16	87	1761	500
13:27:16	81	1751	499
13:27:16	80	1761	503
13:27:16	81	1760	504
13:27:16	83	1761	507
13:27:16	83	1761	507
13:27:16	85	1761	506
13:27:16	83	1762	509
13:27:16	82	1761	503
13:27:16	81	1762	502
13:27:16	81	1761	503
13:27:16	83	1760	511
13:27:16	77	1761	506
13:27:16	83	1762	506
13:27:16	83	1763	506
13:27:16	83	1761	507
13:27:16	80	1762	501
13:27:16	81	1762	501
13:27:16	80	1762	502
13:27:16	83	1762	507
13:27:16	83	1763	505
13:27:16	82	1760	511
13:27:16	86	1763	508
13:27:16	84	1763	510
13:27:16	80	1763	502
13:27:16	82	1762	501
13:27:16	84	1761	509
13:27:16	83	1762	506
13:27:16	83	1762	498
13:27:16	84	1760	511
13:27:16	83	1766	503
13:27:16	85	1762	511
13:27:16	83	1763	500
13:27:16	81	1761	505
13:27:16	81	1762	502
13:27:16	86	1762	509
13:27:16	84	1762	505
13:27:16	86	1763	510
13:27:16	86	1762	507
13:27:16	88	1763	511
13:27:16	85	1762	503
13:27:16	83	1761	506
13:27:16	81	1761	505
13:27:16	86	1757	508
13:27:16	85	1763	510
13:27:16	90	1764	511
13:27:16	85	1761	508
13:27:16	90	1763	504
13:27:16	83	1762	502
13:27:16	83	1762	502
13:27:16	83	1767	501
13:27:16	85	1762	508
13:27:16	89	1763	505
13:27:16	89	1765	508
13:27:16	92	1762	508
13:27:16	83	1761	500
13:27:16	90	1763	507
13:27:16	91	1761	507
13:27:16	87	1761	507
13:27:16	90	1762	500
13:27:16	85	1762	502
13:27:16	85	1762	502
13:27:16	82	1762	511
13:27:16	84	1762	510
13:27:16	82	1762	507
13:27:16	83	1764	509
13:27:16	83	1761	511
13:27:16	81	1760	503
13:27:16	84	1761	506
13:27:16	82	1761	503
13:27:16	85	1761	511
13:27:16	86	1760	509
13:27:16	85	1762	509
13:27:16	85	1762	510
13:27:16	87	1761	511
13:27:16	83	1761	501
13:27:16	83	1757	503
13:27:16	88	1761	510
13:27:16	85	1763	507
13:27:16	85	1765	505
13:27:16	85	1760	506
13:27:16	86	1763	510
13:27:16	87	1763	511
13:27:16	83	1764	501
13:27:16	83	1761	502
13:27:16	86	1761	503
13:27:16	82	1762	511
13:27:16	85	1763	507
13:27:16	85	1762	511
13:27:16	86	1762	509
13:27:16	86	1763	511
13:27:16	83	1761	506
13:27:16	83	1763	501
13:27:16	83	1762	503
13:27:16	87	1761	510
13:27:16	86	1762	510
13:27:16	87	1764	511
13:27:16	87	1758	510
13:27:16	87	1765	511
13:27:16	86	1761	505
13:27:16	86	1762	511
13:27:16	88	1763	509
13:27:16	90	1763	511
13:27:16	85	1763	505
13:27:16	86	1761	507
13:27:16	95	1761	523
13:27:16	89	1763	511
13:27:16	87	1760	507
13:27:16	94	1764	511
13:27:16	87	1761	510
13:27:16	90	1763	506
13:27:16	85	1761	507
13:27:16	89	1765	505
13:27:16	84	1763	511
13:27:16	90	1762	511
13:27:16	89	1761	511
13:27:16	91	1762	507
13:27:16	87	1762	511
13:27:16	93	1761	499
13:27:16	88	1761	499
13:27:16	87	1762	509
13:27:16	87	1763	507
13:27:16	92	1762	507
13:27:16	90	1762	507
13:27:16	92	1763	508
13:27:16	91	1762	510
13:27:16	94	1761	506
13:27:16	87	1762	506
13:27:16	87	1762	508
13:27:16	89	1761	507
13:27:16	91	1761	511
13:27:16	87	1763	509
13:27:16	90	1762	509
13:27:16	92	1763	511
13:27:16	87	1763	508
13:27:16	88	1762	506
13:27:16	87	1762	511
13:27:16	87	1762	511
13:27:16	92	1761	510
13:27:16	91	1761	509
13:27:16	91	1761	509
13:27:16	91	1763	521
13:27:16	86	1760	505
13:27:16	88	1762	505
13:27:16	91	1762	511
13:27:16	89	1761	508
13:27:16	90	1763	509
13:27:16	87	1762	509
13:27:16	87	1762	511
13:27:16	89	1761	510
13:27:16	87	1761	510
13:27:16	87	1763	508
13:27:16	87	1763	511
13:27:16	89	1762	509
13:27:16	91	1762	511
13:27:16	90	1761	511
13:27:16	90	1763	511
13:27:16	92	1761	509
13:27:16	90	1762	506
13:27:16	89	1764	511
13:27:16	87	1762	509
13:27:16	90	1763	506
13:27:16	90	1763	511
13:27:16	87	1764	511
13:27:16	91	1763	509
13:27:16	89	1763	508
13:27:16	91	1762	510
13:27:16	91	1763	511
13:27:16	89	1765	510
13:27:16	90	1763	509
13:27:16	90	1763	511
13:27:16	94	1767	511
13:27:16	91	1766	511
13:27:16	89	1764	508
13:27:16	92	1763	511
13:27:16	94	1763	511
13:27:16	91	1762	509
13:27:16	91	1761	510
13:27:16	93	1765	510
13:27:16	96	1765	510
13:27:16	93	1763	511
13:27:16	94	1763	511
13:27:16	94	1763	523
13:27:16	95	1764	528
13:27:16	94	1763	523
13:27:16	95	1762	526
13:27:16	96	1762	524
13:27:16	95	1763	528
13:27:16	98	1764	523
13:27:16	95	1763	523
13:27:16	95	1765	511
13:27:16	96	1763	526
13:27:16	95	1766	524
13:27:16	95	1764	526
13:27:16	95	1763	526
13:27:16	0	1765	83
13:27:16	0	1767	138
13:27:16	0	1765	181
13:27:16	0	1764	212
13:27:16	0	1765	245
13:27:16	0	1766	275
13:27:16	0	1765	302
13:27:16	0	1765	323
13:27:16	0	1764	350
13:27:16	6	1765	368
13:27:16	12	1765	382
13:27:16	16	1763	398
13:27:16	16	1765	404
13:27:16	23	1764	416
13:27:16	29	1765	429
13:27:16	38	1762	441
13:27:16	42	1765	446
13:27:16	48	1763	451
13:27:16	52	1765	457
13:27:16	54	1764	465
13:27:16	61	1764	462
13:27:16	61	1763	467
13:27:16	66	1763	480
13:27:16	0	1766	35
13:27:16	0	1765	92
13:27:16	0	1763	146
13:27:16	0	1765	187
13:27:16	0	1764	223
13:27:16	0	1765	255
13:27:16	0	1763	275
13:27:16	0	1765	304
13:27:16	0	1763	324
13:27:16	0	1763	347
13:27:16	0	1762	363
13:27:16	0	1764	375
13:27:16	2	1764	389
13:27:16	10	1765	400
13:27:16	12	1763	403
13:27:16	16	1765	417
13:27:16	26	1765	431
13:27:16	29	1770	435
13:27:16	35	1765	442
13:27:16	38	1763	448
13:27:16	44	1763	456
13:27:16	48	1762	457
13:27:16	48	1763	459
13:27:16	51	1763	464
13:27:16	53	1763	466
13:27:16	64	1765	475
13:27:16	64	1763	477
13:27:16	64	1766	479
13:27:16	64	1765	482
13:27:16	67	1764	487
13:27:16	64	1766	485
13:27:16	68	1765	487
13:27:16	69	1763	491
13:27:16	75	1765	496
13:27:16	77	1763	496
13:27:16	79	1763	496
13:27:16	79	1762	495
13:27:16	79	1763	498
13:27:16	0	1765	39
13:27:16	0	1769	96
13:27:16	0	1765	144
13:27:16	0	1766	181
13:27:16	0	1765	224
13:27:16	0	1765	247
13:27:16	0	1765	273
13:27:16	0	1765	299
13:27:16	0	1763	320
13:27:16	0	1765	338
13:27:16	0	1763	357
13:27:16	0	1765	371
13:27:16	0	1763	385
13:27:16	9	1767	400
13:27:16	11	1765	403
13:27:16	15	1763	415
13:27:16	19	1765	427
13:27:16	25	1763	432
13:27:16	31	1764	437
13:27:16	37	1766	441
13:27:16	43	1759	449
13:27:16	45	1764	451
13:27:16	48	1761	458
13:27:16	49	1763	461
13:27:16	51	1763	464
13:27:16	57	1763	467
13:27:16	59	1765	474
13:27:16	63	1763	477
13:27:16	65	1765	481
13:27:16	68	1765	482
13:27:16	67	1763	488
13:27:16	70	1763	490
13:27:16	73	1764	492
13:27:16	73	1763	495
13:27:16	75	1763	496
13:27:16	75	1762	496
13:27:16	77	1765	499
13:27:16	80	1762	500
13:27:16	80	1764	502
13:27:16	80	1763	504
13:27:16	80	1764	506
13:27:16	80	1764	507
13:27:16	0	1765	33
13:27:16	0	1769	105
13:27:16	0	1767	146
13:27:16	0	1765	186
13:27:16	0	1773	226
13:27:16	0	1766	249
13:27:16	0	1765	274
13:27:16	0	1766	299
13:27:16	0	1763	320
13:27:16	0	1759	341
13:27:16	0	1766	356
13:27:16	0	1764	373
13:27:16	2	1766	382
13:27:16	1	1765	395
13:27:16	14	1763	410
13:27:16	16	1765	416
13:27:16	20	1763	427
13:27:16	26	1764	432
13:27:16	34	1763	437
13:27:16	36	1765	445
13:27:16	43	1761	443
13:27:16	42	1766	451
13:27:16	47	1763	457
13:27:16	49	1762	464
13:27:16	53	1764	464
13:27:16	58	1762	468
13:27:16	58	1769	471
13:27:16	64	1764	477
13:27:16	64	1764	465
13:27:16	61	1762	475
13:27:16	64	1762	477
13:27:16	67	1761	486
13:27:16	69	1761	485
13:27:16	69	1763	489
13:27:16	68	1762	486
13:27:16	70	1763	492
13:27:16	69	1763	484
13:27:16	69	1768	486
13:27:16	70	1762	492
13:27:16	71	1761	490
13:27:16	72	1762	489
13:27:16	80	1761	495
13:27:16	75	1765	501
13:27:16	78	1763	496
13:27:16	75	1760	495
13:27:16	76	1760	493
13:27:16	74	1761	495
13:27:16	79	1761	496
13:27:16	79	1759	496
13:27:16	80	1759	498
13:27:16	80	1762	500
13:27:16	80	1760	501
13:27:16	80	1762	497
13:27:16	77	1767	496
13:27:16	81	1761	501
13:27:16	82	1761	498
13:27:16	80	1761	498
13:27:16	81	1761	503
13:27:16	81	1761	502
13:27:16	81	1762	504
13:27:16	80	1761	497
13:27:16	80	1761	497
13:27:16	80	1760	496
13:27:16	82	1762	501
13:27:16	80	1760	502
13:27:16	81	1761	505
13:27:16	82	1763	503
13:27:16	83	1763	511
13:27:16	83	1761	497
13:27:16	82	1761	503
13:27:16	82	1763	506
13:27:16	83	1763	509
13:27:16	81	1762	499
13:27:16	86	1762	504
13:27:16	81	1763	507
13:27:16	82	1763	508
13:27:16	82	1762	500
13:27:16	84	1763	503
13:27:16	83	1762	505
13:27:16	83	1763	510
13:27:16	0	1767	36
13:27:16	0	1767	93
13:27:16	0	1767	147
13:27:16	0	1766	189
13:27:16	0	1766	223
13:27:16	0	1767	257
13:27:16	0	1766	281
13:27:16	0	1767	304
13:27:16	0	1765	322
13:27:16	0	1766	342
13:27:16	0	1767	362
13:27:16	0	1765	370
13:27:16	0	1763	385
13:27:16	3	1765	400
13:27:16	14	1764	413
13:27:16	17	1763	420
13:27:16	21	1765	429
13:27:16	29	1767	441
13:27:16	33	1764	445
13:27:16	42	1765	449
13:27:16	45	1770	451
13:27:16	49	1763	463
13:27:16	54	1763	462
13:27:16	55	1766	466
13:27:16	53	1765	464
13:27:16	57	1763	465
13:27:16	61	1764	469
13:27:16	62	1764	471
13:27:16	63	1763	467
13:27:16	67	1769	484
13:27:16	69	1763	482
13:27:16	73	1765	487
13:27:16	66	1766	481
13:27:16	70	1766	481
13:27:16	65	1760	487
13:27:16	74	1762	491
13:27:16	71	1766	491
13:27:16	74	1765	496
13:27:16	76	1763	495
13:27:16	79	1772	486
13:27:16	74	1764	494
13:27:16	74	1763	494
13:27:16	78	1762	496
13:27:16	77	1762	496
13:27:16	78	1763	495
13:27:16	80	1762	496
13:27:16	78	1763	496
13:27:16	77	1763	490
13:27:16	75	1763	491
13:27:16	76	1763	494
13:27:16	79	1761	496
13:27:16	79	1761	497
13:27:16	79	1761	496
13:27:16	80	1762	498
13:27:16	80	1763	499
13:27:16	77	1763	494
13:27:16	77	1761	496
13:27:16	77	1762	496
13:27:16	80	1762	496
13:27:16	80	1762	499
13:27:16	80	1762	501
13:27:16	81	1763	497
13:27:16	80	1762	502
13:27:16	80	1761	498
13:27:16	79	1761	499
13:27:16	80	1764	497
13:27:16	81	1762	503
13:27:16	81	1763	501
13:27:16	80	1755	503
13:27:16	80	1761	507
13:27:16	82	1759	505
13:27:16	78	1763	497
13:27:16	80	1763	498
13:27:16	80	1761	511
13:27:16	82	1762	505
13:27:16	83	1762	503
13:27:16	82	1763	498
13:27:16	83	1762	506
13:27:16	83	1764	509
13:27:16	81	1763	506
13:27:16	81	1760	500
13:27:16	81	1763	502
13:27:16	83	1760	510
13:27:16	85	1761	504
13:27:16	84	1762	511
13:27:16	85	1763	507
13:27:16	85	1763	511
13:27:16	83	1762	501
13:27:16	83	1762	505
13:27:16	82	1761	503
13:27:16	83	1763	510
13:27:16	86	1763	507
13:27:16	94	1761	511
13:27:16	89	1763	509
13:27:16	86	1763	511
13:27:16	82	1766	503
13:27:16	84	1763	500
13:27:16	83	1762	503
13:27:16	81	1763	509
13:27:16	85	1761	510
13:27:16	83	1763	511
13:27:16	85	1762	509
13:27:16	84	1764	511
13:27:16	80	1760	504
13:27:16	82	1761	503
13:27:16	82	1760	507
13:27:16	84	1760	507
13:27:16	85	1761	508
13:27:16	89	1762	511
13:27:16	83	1771	508
13:27:16	91	1762	511
13:27:16	83	1760	502
13:27:16	82	1759	501
13:27:16	84	1759	509
13:27:16	85	1761	510
13:27:16	85	1760	506
13:27:16	81	1761	508
13:27:16	84	1760	508
13:27:16	89	1763	501
13:27:16	81	1761	503
13:27:16	81	1762	502
13:27:16	80	1762	510
13:27:16	85	1760	509
13:27:16	83	1762	509
13:27:16	80	1762	508
13:27:16	84	1761	508
13:27:16	86	1760	499
13:27:16	81	1761	504
13:27:16	83	1767	503
13:27:17	82	1760	505
13:27:17	85	1762	510
13:27:17	87	1761	509
13:27:17	89	1761	508
13:27:17	86	1762	510
13:27:17	86	1762	501
13:27:17	85	1763	505
13:27:17	85	1762	502
13:27:17	86	1762	511
13:27:17	83	1761	511
13:27:17	83	1761	505
13:27:17	86	1761	506
13:27:17	85	1759	508
13:27:17	82	1760	503
13:27:17	83	1760	503
13:27:17	81	1760	506
13:27:17	85	1761	509
13:27:17	85	1762	500
13:27:17	83	1760	508
13:27:17	83	1762	507
13:27:17	83	1761	507
13:27:17	85	1763	508
13:27:17	85	1765	509
13:27:17	84	1763	508
13:27:17	87	1761	507
13:27:17	86	1762	510
13:27:17	82	1755	511
13:27:17	85	1761	507
13:27:17	84	1762	511
13:27:17	89	1761	510
13:27:17	87	1763	509
13:27:17	85	1761	509
13:27:17	85	1762	511
13:27:17	87	1761	509
13:27:17	86	1763	511
13:27:17	85	1763	508
13:27:17	86	1762	510
13:27:17	86	1760	510
13:27:17	86	1765	511
13:27:17	85	1762	510
13:27:17	83	1761	506
13:27:17	84	1763	510
13:27:17	85	1763	511
13:27:17	81	1762	507
13:27:17	86	1760	500
13:27:17	84	1762	508
13:27:17	85	1763	511
13:27:17	83	1762	507
13:27:17	83	1763	508
13:27:17	82	1762	507
13:27:17	85	1765	505
13:27:17	80	1763	505
13:27:17	83	1763	505
13:27:17	82	1763	507
13:27:17	85	1763	508
13:27:17	81	1765	506
13:27:17	82	1761	508
13:27:17	82	1762	506
13:27:17	84	1762	503
13:27:17	82	1765	509
13:27:17	82	1762	506
13:27:17	83	1763	508
13:27:17	83	1765	503
13:27:17	80	1765	507
13:27:17	82	1763	507
13:27:17	85	1763	507
13:27:17	83	1759	506
13:27:17	83	1763	508
13:27:17	83	1763	506
13:27:17	81	1764	507
13:27:17	82	1762	507
13:27:17	81	1763	506
13:27:17	85	1763	508
13:27:17	83	1765	507
13:27:17	82	1767	508
13:27:17	83	1765	508
13:27:17	83	1763	509
13:27:17	84	1763	509
13:27:17	84	1765	510
13:27:17	85	1763	509
13:27:17	85	1763	510
13:27:17	86	1764	511
13:27:17	87	1763	511
13:27:17	90	1765	511
13:27:17	87	1764	511
13:27:17	88	1763	511
13:27:17	86	1762	511
13:27:17	87	1766	523
13:27:17	86	1761	511
13:27:17	85	1764	511
13:27:17	82	1763	511
13:27:17	90	1763	526
13:27:17	86	1765	511
13:27:17	86	1763	511
13:27:17	93	1763	511
13:27:17	89	1763	511
13:27:17	89	1762	510
13:27:17	0	1763	41
13:27:17	0	1765	96
13:27:17	0	1763	144
13:27:17	0	1762	187
13:27:17	0	1764	217
13:27:17	0	1765	251
13:27:17	0	1759	281
13:27:17	0	1765	305
13:27:17	0	1766	325
13:27:17	0	1763	342
13:27:17	0	1765	359
13:27:17	0	1766	374
13:27:17	0	1765	383
13:27:17	12	1763	400
13:27:17	11	1764	409
13:27:17	18	1764	420
13:27:17	16	1761	426
13:27:17	31	1760	423
13:27:17	33	1764	440
13:27:17	40	1763	448
13:27:17	46	1763	450
13:27:17	47	1764	453
13:27:17	49	1765	460
13:27:17	55	1763	469
13:27:17	51	1764	461
13:27:17	62	1762	473
13:27:17	62	1770	470
13:27:17	65	1761	479
13:27:17	61	1764	469
13:27:17	64	1763	475
13:27:17	67	1761	482
13:27:17	70	1763	481
13:27:17	67	1761	482
13:27:17	69	1763	490
13:27:17	71	1763	486
13:27:17	71	1763	487
13:27:17	71	1762	489
13:27:17	75	1762	496
13:27:17	75	1763	489
13:27:17	73	1763	491
13:27:17	78	1762	492
13:27:17	79	1763	496
13:27:17	77	1766	494
13:27:17	83	1764	496
13:27:17	75	1762	494
13:27:17	80	1765	496
13:27:17	79	1763	491
13:27:17	80	1765	490
13:27:17	78	1765	494
13:27:17	81	1763	498
13:27:17	80	1762	499
13:27:17	81	1766	497
13:27:17	81	1762	501
13:27:17	82	1763	499
13:27:17	81	1762	500
13:27:17	82	1763	494
13:27:17	80	1765	500
13:27:17	82	1763	497
13:27:17	80	1763	498
13:27:17	84	1764	495
13:27:17	79	1763	493
13:27:17	80	1763	502
13:27:17	80	1763	502
13:27:17	82	1762	499
13:27:17	81	1761	506
13:27:17	81	1761	502
13:27:17	80	1762	500
13:27:17	80	1763	498
13:27:17	80	1765	503
13:27:17	81	1762	500
13:27:17	85	1762	503
13:27:17	80	1762	496
13:27:17	81	1760	499
13:27:17	86	1765	503
13:27:17	83	1762	502
13:27:17	85	1762	498
13:27:17	82	1765	499
13:27:17	80	1762	499
13:27:17	91	1763	503
13:27:17	80	1763	497
13:27:17	84	1763	500
13:27:17	83	1763	505
13:27:17	83	1762	506
13:27:17	83	1763	493
13:27:17	85	1763	507
13:27:17	87	1762	499
13:27:17	80	1763	505
13:27:17	80	1761	497
13:27:17	81	1762	506
13:27:17	82	1763	502
13:27:17	81	1763	499
13:27:17	83	1760	502
13:27:17	81	1763	511
13:27:17	83	1761	506
13:27:17	83	1762	507
13:27:17	80	1761	496
13:27:17	82	1760	503
13:27:17	83	1763	501
13:27:17	82	1762	502
13:27:17	90	1761	500
13:27:17	83	1762	499
13:27:17	80	1765	501
13:27:17	84	1766	496
13:27:17	80	1762	498
13:27:17	84	1763	502
13:27:17	85	1763	501
13:27:17	83	1763	497
13:27:17	78	1763	498
13:27:17	82	1763	506
13:27:17	81	1761	503
13:27:17	82	1762	502
13:27:17	82	1762	503
13:27:17	95	1761	501
13:27:17	81	1763	503
13:27:17	85	1764	497
13:27:17	80	1762	501
13:27:17	80	1763	499
13:27:17	80	1749	501
13:27:17	80	1761	499
13:27:17	81	1751	506
13:27:17	80	1761	501
13:27:17	86	1761	505
13:27:17	80	1762	501
13:27:17	71	1765	502
13:27:17	80	1762	499
13:27:17	81	1763	500
13:27:17	80	1753	499
13:27:17	80	1762	497
13:27:17	80	1760	504
13:27:17	81	1760	505
13:27:17	80	1762	498
13:27:17	80	1761	500
13:27:17	80	1760	499
13:27:17	80	1761	505
13:27:17	82	1762	505
13:27:17	83	1760	504
13:27:17	83	1761	506
13:27:17	82	1762	511
13:27:17	80	1761	502
13:27:17	80	1761	498
13:27:17	80	1763	503
13:27:17	81	1761	506
13:27:17	82	1761	504
13:27:17	81	1761	511
13:27:17	83	1760	506
13:27:17	83	1762	507
13:27:17	80	1760	501
13:27:17	80	1762	500
13:27:17	82	1761	498
13:27:17	80	1761	499
13:27:17	82	1759	507
13:27:17	82	1761	509
13:27:17	81	1767	503
13:27:17	83	1762	507
13:27:17	85	1761	502
13:27:17	80	1761	499
13:27:17	81	1761	507
13:27:17	83	1761	507
13:27:17	83	1760	503
13:27:17	84	1760	503
13:27:17	83	1763	506
13:27:17	85	1760	503
13:27:17	85	1762	505
13:27:17	84	1761	503
13:27:17	85	1761	505
13:27:17	85	1762	505
13:27:17	84	1762	505
13:27:17	90	1761	510
13:27:17	86	1763	508
13:27:17	89	1765	508
13:27:17	80	1760	501
13:27:17	82	1761	499
13:27:17	84	1761	506
13:27:17	86	1763	507
13:27:17	80	1761	503
13:27:17	90	1763	503
13:27:17	85	1760	504
13:27:17	87	1760	499
13:27:17	80	1763	497
13:27:17	83	1761	504
13:27:17	83	1761	505
13:27:17	82	1763	507
13:27:17	82	1762	502
13:27:17	82	1763	508
13:27:17	82	1762	503
13:27:17	84	1761	502
13:27:17	82	1762	502
13:27:17	77	1765	502
13:27:17	83	1762	502
13:27:17	82	1761	503
13:27:17	83	1762	505
13:27:17	86	1761	507
13:27:17	83	1763	507
13:27:17	87	1763	511
13:27:17	87	1762	511
13:27:17	86	1764	511
13:27:17	90	1762	511
13:27:17	90	1762	511
13:27:17	91	1761	511
13:27:17	92	1762	511
13:27:17	92	1762	511
13:27:17	93	1763	523
13:27:17	94	1763	511
13:27:17	93	1764	525
13:27:17	93	1764	511
13:27:17	95	1763	526
13:27:17	94	1762	525
13:27:17	0	1765	38
13:27:17	0	1763	93
13:27:17	0	1757	145
13:27:17	0	1766	184
13:27:17	0	1765	226
13:27:17	0	1764	246
13:27:17	0	1765	275
13:27:17	0	1762	304
13:27:17	0	1763	323
13:27:17	0	1765	340
13:27:17	0	1764	360
13:27:17	0	1762	371
13:27:17	1	1764	382
13:27:17	2	1762	395
13:27:17	14	1764	411
13:27:17	18	1763	418
13:27:17	28	1763	421
13:27:17	24	1767	432
13:27:17	32	1754	437
13:27:17	37	1764	444
13:27:17	46	1762	449
13:27:17	46	1762	461
13:27:17	52	1763	460
13:27:17	55	1761	464
13:27:17	61	1763	461
13:27:17	58	1761	464
13:27:17	62	1763	474
13:27:17	64	1762	473
13:27:17	66	1762	477
13:27:17	64	1762	477
13:27:17	65	1756	477
13:27:17	65	1762	482
13:27:17	64	1761	479
13:27:17	67	1761	480
13:27:17	68	1762	482
13:27:17	72	1761	490
13:27:17	71	1763	490
13:27:17	77	1762	491
13:27:17	76	1763	491
13:27:17	75	1762	496
13:27:17	72	1762	490
13:27:17	77	1763	495
13:27:17	77	1762	497
13:27:17	78	1762	496
13:27:17	76	1762	490
13:27:17	74	1762	493
13:27:17	77	1761	495
13:27:17	79	1763	499
13:27:17	80	1760	495
13:27:17	80	1761	496
13:27:17	80	1761	496
13:27:17	79	1760	498
13:27:17	78	1764	494
13:27:17	77	1761	495
13:27:17	77	1760	495
13:27:17	77	1762	497
13:27:17	80	1763	497
13:27:17	80	1761	500
13:27:17	80	1762	497
13:27:17	80	1763	501
13:27:17	80	1762	494
13:27:17	80	1763	500
13:27:17	80	1761	496
13:27:17	80	1761	497
13:27:17	80	1763	496
13:27:17	82	1761	500
13:27:17	80	1765	497
13:27:17	80	1761	496
13:27:17	81	1762	496
13:27:17	81	1763	500
13:27:17	80	1763	499
13:27:17	80	1762	496
13:27:17	80	1761	497
13:27:17	82	1765	499
13:27:17	80	1762	496
13:27:17	82	1764	499
13:27:17	81	1763	496
13:27:17	86	1765	504
13:27:17	81	1763	503
13:27:17	83	1763	505
13:27:17	84	1762	507
13:27:17	81	1765	511
13:27:17	84	1763	509
13:27:17	86	1764	511
13:27:17	86	1762	511
13:27:17	87	1762	523
13:27:17	89	1762	511
13:27:17	87	1762	511
13:27:17	90	1762	511
13:27:17	88	1762	511
13:27:17	91	1763	511
13:27:17	91	1763	522
13:27:17	91	1763	511
13:27:17	0	1765	37
13:27:17	0	1766	95
13:27:17	0	1767	145
13:27:17	0	1766	176
13:27:17	0	1769	225
13:27:17	0	1765	247
13:27:17	0	1766	273
13:27:17	0	1763	302
13:27:17	0	1763	326
13:27:17	0	1767	341
13:27:17	0	1767	358
13:27:17	0	1764	371
13:27:17	3	1763	382
13:27:17	2	1764	397
13:27:17	8	1762	401
13:27:17	16	1761	416
13:27:17	22	1763	425
13:27:17	26	1765	432
13:27:17	33	1761	435
13:27:17	37	1763	443
13:27:17	43	1763	442
13:27:17	44	1761	449
13:27:17	48	1763	460
13:27:17	51	1764	460
13:27:17	50	1761	464
13:27:17	55	1763	464
13:27:17	60	1762	466
13:27:17	61	1763	471
13:27:17	61	1763	467
13:27:17	64	1763	470
13:27:17	64	1761	474
13:27:17	64	1762	477
13:27:17	65	1761	478
13:27:17	66	1760	481
13:27:17	66	1762	482
13:27:17	65	1763	486
13:27:17	66	1762	482
13:27:17	65	1762	483
13:27:17	68	1761	484
13:27:17	74	1761	489
13:27:17	74	1760	490
13:27:17	74	1764	491
13:27:17	73	1763	491
13:27:17	74	1763	492
13:27:17	75	1760	490
13:27:17	75	1761	490
13:27:17	75	1762	493
13:27:18	76	1762	496
13:27:18	73	1762	490
13:27:18	75	1761	495
13:27:18	77	1761	496
13:27:18	76	1765	495
13:27:18	77	1761	493
13:27:18	78	1766	498
13:27:18	78	1761	495
13:27:18	79	1762	498
13:27:18	77	1760	494
13:27:18	77	1768	499
13:27:18	80	1762	496
13:27:18	80	1763	501
13:27:18	74	1761	493
13:27:18	80	1767	498
13:27:18	78	1771	496
13:27:18	80	1763	496
13:27:18	78	1770	496
13:27:18	81	1763	496
13:27:18	79	1751	499
13:27:18	81	1765	499
13:27:18	78	1762	495
13:27:18	80	1763	496
13:27:18	78	1763	497
13:27:18	80	1761	499
13:27:18	80	1762	500
13:27:18	82	1763	511
13:27:18	85	1761	503
13:27:18	80	1762	508
13:27:18	80	1762	498
13:27:18	80	1762	502
13:27:18	81	1761	503
13:27:18	80	1761	501
13:27:18	0	1764	37
13:27:18	0	1764	94
13:27:18	0	1765	144
13:27:18	0	1764	187
13:27:18	0	1766	217
13:27:18	0	1766	247
13:27:18	0	1762	275
13:27:18	0	1763	304
13:27:18	0	1764	320
13:27:18	0	1765	340
13:27:18	0	1763	359
13:27:18	0	1765	374
13:27:18	0	1764	382
13:27:18	1	1766	395
13:27:18	10	1765	402
13:27:18	14	1762	412
13:27:18	24	1762	426
13:27:18	25	1763	432
13:27:18	30	1756	438
13:27:18	38	1763	444
13:27:18	37	1762	448
13:27:18	48	1761	450
13:27:18	48	1761	459
13:27:18	51	1761	457
13:27:18	56	1762	464
13:27:18	58	1763	462
13:27:18	58	1762	469
13:27:18	64	1760	474
13:27:18	64	1762	470
13:27:18	63	1762	472
13:27:18	64	1762	479
13:27:18	64	1761	475
13:27:18	65	1763	480
13:27:18	67	1761	487
13:27:18	67	1761	490
13:27:18	70	1762	495
13:27:18	68	1763	485
13:27:18	67	1761	485
13:27:18	74	1762	489
13:27:18	73	1761	493
13:27:18	73	1761	493
13:27:18	75	1760	496
13:27:18	77	1761	497
13:27:18	77	1762	498
13:27:18	75	1761	497
13:27:18	78	1762	496
13:27:18	80	1762	499
13:27:18	81	1763	503
13:27:18	80	1762	500
13:27:18	80	1762	501
13:27:18	80	1761	503
13:27:18	81	1761	501
13:27:18	82	1763	505
13:27:18	84	1763	506
13:27:18	0	1767	39
13:27:18	0	1765	97
13:27:18	0	1765	144
13:27:18	0	1765	187
13:27:18	0	1764	219
13:27:18	0	1764	247
13:27:18	0	1763	272
13:27:18	0	1766	304
13:27:18	0	1765	323
13:27:18	0	1765	341
13:27:18	0	1765	363
13:27:18	0	1766	373
13:27:18	0	1764	384
13:27:18	2	1765	393
13:27:18	10	1765	399
13:27:18	14	1763	414
13:27:18	17	1762	419
13:27:18	28	1763	432
13:27:18	34	1763	441
13:27:18	41	1764	443
13:27:18	39	1766	448
13:27:18	42	1763	447
13:27:18	48	1762	457
13:27:18	49	1763	457
13:27:18	51	1760	467
13:27:18	55	1762	465
13:27:18	61	1762	467
13:27:18	62	1764	475
13:27:18	61	1762	463
13:27:18	64	1761	474
13:27:18	64	1761	481
13:27:18	68	1762	483
13:27:18	71	1764	486
13:27:18	71	1762	486
13:27:18	73	1761	491
13:27:18	74	1762	494
13:27:18	70	1762	489
13:27:18	74	1763	489
13:27:18	73	1762	495
13:27:18	78	1762	497
13:27:18	79	1762	498
13:27:18	79	1762	498
13:27:18	80	1763	499
13:27:18	80	1761	501
13:27:18	81	1763	496
13:27:18	0	1765	86
13:27:18	0	1765	141
13:27:18	0	1764	180
13:27:18	0	1764	220
13:27:18	0	1767	246
13:27:18	0	1765	274
13:27:18	0	1765	299
13:27:18	0	1763	329
13:27:18	0	1763	343
13:27:18	0	1764	352
13:27:18	2	1763	372
13:27:18	10	1762	391
13:27:18	11	1763	397
13:27:18	17	1764	406
13:27:18	22	1765	420
13:27:18	29	1763	429
13:27:18	32	1762	437
13:27:18	41	1764	448
13:27:18	39	1763	448
13:27:18	48	1762	459
13:27:18	52	1764	456
13:27:18	50	1763	462
13:27:18	54	1764	464
13:27:18	59	1762	469
13:27:18	60	1763	471
13:27:18	64	1761	477
13:27:18	67	1766	479
13:27:18	38	1763	305
13:27:18	32	1763	330
13:27:19	32	1765	341
13:27:19	31	1765	361
13:27:19	29	1766	377
13:27:19	34	1763	396
13:27:19	35	1762	406
13:27:19	38	1762	417
13:27:19	46	1762	428
13:27:19	46	1764	436
13:27:19	49	1762	436
13:27:19	48	1763	446
13:27:19	51	1762	454
13:27:19	56	1762	459
13:27:19	56	1763	464
13:27:19	59	1763	471
13:27:19	64	1766	476
13:27:19	64	1763	475
13:27:19	67	1763	482
13:27:19	64	1762	479
13:27:19	67	1766	489
13:27:19	65	1763	483
13:27:19	69	1763	487
13:27:19	0	1766	37
13:27:19	0	1767	93
13:27:19	0	1767	141
13:27:19	0	1767	182
13:27:19	0	1769	218
13:27:19	0	1767	247
13:27:19	0	1767	274
13:27:19	0	1767	300
13:27:19	0	1769	319
13:27:19	0	1766	338
13:27:19	0	1765	354
13:27:19	0	1767	368
13:27:19	0	1767	384
13:27:19	5	1765	394
13:27:19	11	1766	402
13:27:19	16	1766	413
13:27:19	22	1766	421
13:27:19	28	1768	431
13:27:19	32	1767	432
13:27:19	27	1769	448
13:27:19	44	1755	446
13:27:19	47	1767	452
13:27:19	48	1765	448
13:27:19	49	1764	454
13:27:19	52	1763	458
13:27:19	53	1761	462
13:27:19	58	1763	468
13:27:19	64	1766	473
13:27:19	64	1763	474
13:27:19	64	1767	478
13:27:19	63	1764	470
13:27:19	64	1765	473
13:27:19	64	1763	476
13:27:19	66	1765	479
13:27:19	65	1762	481
13:27:19	69	1764	486
13:27:19	75	1763	482
13:27:19	71	1762	487
13:27:19	69	1764	481
13:27:19	65	1756	481
13:27:19	62	1762	482
13:27:19	71	1759	485
13:27:19	76	1765	490
13:27:19	79	1763	487
13:27:19	77	1761	489
13:27:19	80	1762	483
13:27:19	77	1762	486
13:27:19	76	1761	486
13:27:19	79	1760	490
13:27:19	78	1761	494
13:27:19	78	1763	493
13:27:19	79	1760	491
13:27:19	84	1763	494
13:27:19	79	1761	495
13:27:19	80	1762	495
13:27:19	80	1761	494
13:27:19	80	1761	496
13:27:19	82	1761	489
13:27:19	80	1761	495
13:27:19	80	1762	493
13:27:19	79	1761	495
13:27:19	80	1765	494
13:27:19	80	1762	495
13:27:19	80	1761	496
13:27:19	80	1764	495
13:27:19	80	1763	494
13:27:19	80	1763	497
13:27:19	80	1765	495
13:27:19	80	1762	496
13:27:19	80	1762	496
13:27:19	80	1762	496
13:27:19	80	1762	497
13:27:19	80	1762	496
13:27:19	80	1762	496
13:27:19	80	1762	501
13:27:19	83	1764	498
13:27:19	80	1763	496
13:27:19	83	1762	499
13:27:19	81	1763	502
13:27:19	81	1762	492
13:27:19	83	1763	499
13:27:19	82	1764	497
13:27:19	83	1764	502
13:27:19	82	1761	498
13:27:19	80	1761	497
13:27:19	82	1764	497
13:27:19	83	1765	503
13:27:19	81	1761	498
13:27:19	83	1765	500
13:27:19	85	1763	503
13:27:19	86	1763	505
13:27:19	86	1763	499
13:27:19	86	1763	502
13:27:19	82	1767	502
13:27:19	88	1762	509
13:27:19	83	1763	502
13:27:19	85	1764	499
13:27:19	85	1762	502
13:27:19	89	1766	503
13:27:19	89	1762	505
13:27:19	86	1763	503
13:27:19	86	1766	503
13:27:19	88	1765	503
13:27:19	87	1762	503
13:27:19	87	1761	501
13:27:19	86	1763	502
13:27:19	90	1763	495
13:27:19	85	1763	502
13:27:19	84	1763	496
13:27:19	85	1769	502
13:27:19	86	1762	503
13:27:19	85	1760	502
13:27:19	84	1763	503
13:27:19	86	1765	502
13:27:19	84	1763	503
13:27:19	86	1763	505
13:27:19	87	1763	505
13:27:19	86	1762	507
13:27:19	87	1763	507
13:27:19	89	1763	509
13:27:19	87	1762	511
13:27:19	89	1765	511
13:27:19	90	1763	511
13:27:19	90	1764	511
13:27:19	94	1763	510
13:27:19	89	1765	511
13:27:19	90	1762	525
13:27:19	96	1763	511
13:27:19	93	1763	511
13:27:19	95	1763	511
13:27:19	85	1763	511
13:27:19	92	1766	511
13:27:19	95	1762	511
13:27:19	91	1763	511
13:27:19	80	1762	445
13:27:19	80	1763	455
13:27:19	79	1763	464
13:27:19	77	1763	464
13:27:19	78	1763	468
13:27:19	78	1764	479
13:27:19	78	1766	481
13:27:19	78	1763	483
13:27:19	80	1763	486
13:27:19	80	1765	494
13:27:19	80	1764	494
13:27:19	80	1764	496
13:27:19	83	1763	498
13:27:19	83	1764	502
13:27:19	83	1763	502
13:27:19	84	1764	507
13:27:19	86	1763	510
13:27:19	86	1765	509
13:27:19	90	1763	511
13:27:19	89	1766	511
13:27:19	0	1765	32
13:27:19	0	1766	92
13:27:19	0	1766	141
13:27:19	0	1766	180
13:27:19	0	1763	214
13:27:19	0	1765	245
13:27:19	0	1764	272
13:27:19	0	1765	291
13:27:19	0	1767	320
13:27:19	0	1766	336
13:27:19	0	1764	354
13:27:19	0	1763	363
13:27:19	0	1765	375
13:27:19	6	1763	397
13:27:19	15	1765	400
13:27:19	16	1763	410
13:27:19	20	1763	412
13:27:19	30	1761	427
13:27:19	32	1763	433
13:27:19	33	1763	433
13:27:19	42	1765	448
13:27:19	43	1763	448
13:27:19	50	1764	459
13:27:19	48	1762	455
13:27:19	49	1761	455
13:27:19	59	1761	464
13:27:19	59	1764	466
13:27:19	66	1762	466
13:27:19	64	1763	470
13:27:19	64	1765	474
13:27:19	65	1765	475
13:27:19	67	1762	479
13:27:19	68	1763	479
13:27:19	59	1764	481
13:27:19	69	1762	482
13:27:19	72	1763	484
13:27:19	74	1761	483
13:27:19	71	1762	487
13:27:19	73	1762	487
13:27:19	74	1763	489
13:27:19	77	1763	496
13:27:19	79	1763	491
13:27:19	76	1765	492
13:27:19	78	1763	496
13:27:19	79	1766	496
13:27:19	79	1763	496
13:27:19	80	1762	498
13:27:19	80	1764	498
13:27:19	80	1762	499
13:27:19	80	1764	505
13:27:19	81	1765	503
13:27:19	80	1765	506
13:27:19	80	1765	505
13:27:19	84	1763	505
13:27:19	82	1763	509
13:27:19	84	1765	509
13:27:19	86	1763	510
13:27:19	85	1765	502
13:27:19	85	1764	509
13:27:19	0	1765	35
13:27:19	0	1765	87
13:27:19	0	1765	138
13:27:19	0	1765	177
13:27:19	0	1765	207
13:27:19	0	1753	240
13:27:19	0	1763	265
13:27:19	0	1765	296
13:27:19	0	1765	318
13:27:19	0	1766	335
13:27:19	0	1766	348
13:27:19	0	1766	366
13:27:19	0	1772	375
13:27:19	0	1763	385
13:27:19	5	1766	396
13:27:19	3	1766	409
13:27:19	20	1765	415
13:27:19	26	1762	422
13:27:19	31	1765	432
13:27:19	35	1765	435
13:27:19	45	1764	437
13:27:19	39	1764	441
13:27:19	44	1764	447
13:27:19	49	1762	453
13:27:19	51	1763	458
13:27:19	51	1762	463
13:27:19	55	1765	464
13:27:19	59	1765	470
13:27:19	57	1763	464
13:27:19	61	1765	465
13:27:19	64	1761	474
13:27:19	64	1764	474
13:27:19	65	1763	475
13:27:19	64	1763	483
13:27:19	69	1761	480
13:27:19	67	1766	486
13:27:19	66	1763	476
13:27:19	68	1765	483
13:27:19	73	1763	480
13:27:19	70	1764	485
13:27:19	66	1761	478
13:27:19	65	1763	486
13:27:19	71	1763	486
13:27:20	71	1763	486
13:27:20	71	1764	487
13:27:20	76	1765	486
13:27:20	75	1765	489
13:27:20	80	1765	480
13:27:20	73	1763	485
13:27:20	78	1761	491
13:27:20	77	1765	492
13:27:20	78	1763	494
13:27:20	75	1765	495
13:27:20	80	1765	495
13:27:20	79	1763	495
13:27:20	80	1761	489
13:27:20	78	1763	494
13:27:20	79	1761	496
13:27:20	80	1762	496
13:27:20	80	1761	496
13:27:20	80	1763	503
13:27:20	81	1761	502
13:27:20	80	1762	497
13:27:20	81	1765	496
13:27:20	80	1762	496
13:27:20	80	1762	497
13:27:20	80	1762	497
13:27:20	80	1762	498
13:27:20	0	1765	43
13:27:20	0	1765	97
13:27:20	0	1764	145
13:27:20	0	1765	183
13:27:20	0	1765	216
13:27:20	0	1765	247
13:27:20	0	1765	273
13:27:20	0	1765	304
13:27:20	0	1764	314
13:27:20	0	1762	338
13:27:20	0	1765	354
13:27:20	0	1764	370
13:27:20	1	1762	380
13:27:20	5	1766	391
13:27:20	15	1763	401
13:27:20	17	1762	411
13:27:20	22	1762	419
13:27:20	29	1763	427
13:27:20	34	1765	433
13:27:20	39	1763	441
13:27:20	37	1765	444
13:27:20	42	1765	447
13:27:20	46	1765	451
13:27:20	48	1763	463
13:27:20	49	1762	461
13:27:20	55	1761	464
13:27:20	57	1761	469
13:27:20	63	1765	474
13:27:20	63	1762	467
13:27:20	64	1762	473
13:27:20	64	1763	479
13:27:20	66	1765	481
13:27:20	68	1762	483
13:27:20	74	1764	490
13:27:20	74	1763	487
13:27:20	77	1763	494
13:27:20	77	1763	487
13:27:20	74	1763	490
13:27:20	74	1762	493
13:27:20	80	1762	497
13:27:20	80	1763	496
13:27:20	0	1766	37
13:27:20	0	1770	97
13:27:20	0	1766	135
13:27:20	0	1769	186
13:27:20	0	1766	211
13:27:20	0	1767	242
13:27:20	0	1767	277
13:27:20	0	1769	298
13:27:20	0	1765	320
13:27:20	0	1770	342
13:27:20	0	1766	356
13:27:20	0	1767	374
13:27:20	0	1767	383
13:27:20	5	1765	393
13:27:20	10	1766	403
13:27:20	16	1766	413
13:27:20	22	1764	423
13:27:20	23	1763	437
13:27:20	33	1764	441
13:27:20	37	1765	450
13:27:20	37	1766	448
13:27:20	44	1766	453
13:27:20	48	1763	457
13:27:20	48	1765	464
13:27:20	52	1763	468
13:27:20	58	1764	470
13:27:20	62	1766	475
13:27:20	65	1763	478
13:27:20	134	1771	53
13:27:20	111	1767	100
13:27:20	97	1771	146
13:27:20	82	1767	180
13:27:20	75	1769	212
13:27:20	66	1767	241
13:27:20	0	1767	38
13:27:20	0	1767	110
13:27:20	0	1766	160
13:27:20	0	1767	211
13:27:20	0	1767	249
13:27:20	0	1766	286
13:27:20	0	1765	316
13:27:20	0	1763	339
13:27:20	0	1765	363
13:27:20	0	1766	379
13:27:20	0	1766	397
13:27:20	0	1767	411
13:27:20	10	1767	421
13:27:20	16	1765	434
13:27:20	19	1766	442
13:27:20	27	1766	449
13:27:20	35	1765	455
13:27:20	38	1768	462
13:27:20	46	1765	458
13:27:20	45	1766	465
13:27:20	48	1770	467
13:27:20	50	1763	473
13:27:20	55	1762	479
13:27:20	59	1765	486
13:27:20	61	1765	487
13:27:20	65	1761	490
13:27:21	69	1767	491
13:27:21	66	1764	493
13:27:21	67	1765	494
13:27:21	70	1763	496
13:27:21	68	1762	496
13:27:21	71	1764	497
13:27:21	73	1762	498
13:27:21	71	1762	498
13:27:21	74	1761	499
13:27:21	74	1761	499
13:27:21	77	1762	499
13:27:21	76	1762	501
13:27:21	77	1763	502
13:27:21	76	1763	498
13:27:21	77	1761	501
13:27:21	78	1762	502
13:27:21	78	1761	503
13:27:21	79	1762	502
13:27:21	80	1761	502
13:27:21	78	1759	506
13:27:21	80	1761	510
13:27:21	80	1762	508
13:27:21	81	1761	511
13:27:21	81	1762	511
13:27:21	82	1761	511
13:27:21	82	1761	511
13:27:21	81	1763	523
13:27:21	84	1761	523
13:27:21	83	1762	525
13:27:21	85	1762	524
13:27:21	86	1764	523
13:27:21	85	1761	524
13:27:21	86	1762	525
13:27:21	87	1761	524
13:27:21	87	1763	525
13:27:21	85	1762	525
13:27:21	2	1763	161
13:27:21	0	1763	208
13:27:21	0	1761	247
13:27:21	0	1763	294
13:27:21	0	1762	319
13:27:21	0	1764	348
13:27:21	0	1761	359
13:27:21	5	1762	378
13:27:21	0	1763	394
13:27:21	15	1763	406
13:27:21	22	1750	425
13:27:21	31	1765	435
13:27:21	36	1761	442
13:27:21	41	1765	455
13:27:21	41	1761	453
13:27:21	43	1762	460
13:27:21	48	1760	468
13:27:21	57	1762	474
13:27:21	53	1761	477
13:27:21	61	1763	480
13:27:21	62	1763	484
13:27:21	64	1763	479
13:27:21	61	1764	479
13:27:21	64	1753	487
13:27:21	67	1762	496
13:27:21	67	1761	496
13:27:21	72	1762	496
13:27:21	76	1762	496
13:27:21	74	1755	501
13:27:21	77	1763	496
13:27:21	68	1761	496
13:27:21	70	1757	504
13:27:21	72	1762	501
13:27:21	73	1762	506
13:27:21	75	1763	505
13:27:21	76	1763	505
13:27:21	77	1764	507
13:27:21	74	1761	503
13:27:21	70	1762	501
13:27:21	70	1760	501
13:27:21	76	1765	510
13:27:21	79	1761	508
13:27:21	77	1761	506
13:27:21	79	1761	510
13:27:21	79	1760	509
13:27:21	80	1762	501
13:27:21	76	1761	507
13:27:21	73	1761	506
13:27:21	79	1761	507
13:27:21	78	1761	508
13:27:21	77	1765	507
13:27:21	77	1759	510
13:27:21	80	1762	506
13:27:21	75	1760	502
13:27:21	65	1760	501
13:27:21	80	1760	508
13:27:21	80	1762	508
13:27:21	80	1761	507
13:27:21	80	1760	502
13:27:21	78	1766	507
13:27:21	80	1761	511
13:27:21	75	1761	501
13:27:21	73	1760	506
13:27:21	80	1760	511
13:27:21	78	1762	505
13:27:21	80	1761	506
13:27:21	80	1761	511
13:27:21	81	1760	506
13:27:21	80	1765	526
13:27:21	75	1759	501
13:27:21	80	1763	511
13:27:21	80	1761	510
13:27:21	80	1763	511
13:27:21	75	1762	497
13:27:21	80	1762	511
13:27:21	79	1765	511
13:27:21	80	1763	511
13:27:21	79	1762	503
13:27:21	74	1761	511
13:27:21	79	1763	511
13:27:21	80	1760	510
13:27:21	79	1759	509
13:27:21	80	1763	511
13:27:21	82	1763	509
13:27:21	81	1764	511
13:27:21	79	1762	502
13:27:21	80	1761	501
13:27:21	76	1762	500
13:27:21	77	1760	504
13:27:21	79	1760	511
13:27:21	82	1761	511
13:27:21	80	1763	508
13:27:21	82	1762	498
13:27:21	80	1749	503
13:27:21	77	1758	505
13:27:21	77	1759	507
13:27:21	77	1760	502
13:27:21	80	1762	511
13:27:21	80	1762	510
13:27:21	80	1761	511
13:27:21	82	1763	503
13:27:21	76	1761	503
13:27:21	76	1762	506
13:27:21	79	1761	507
13:27:21	80	1759	510
13:27:21	80	1760	509
13:27:21	81	1761	507
13:27:21	80	1762	510
13:27:21	80	1758	497
13:27:21	78	1762	498
13:27:21	76	1762	499
13:27:21	79	1760	508
13:27:21	77	1760	510
13:27:21	76	1759	505
13:27:21	75	1760	503
13:27:21	78	1760	507
13:27:21	71	1755	497
13:27:21	75	1760	503
13:27:21	79	1758	507
13:27:21	77	1759	507
13:27:21	77	1760	501
13:27:21	75	1760	502
13:27:21	79	1761	511
13:27:21	78	1760	506
13:27:21	74	1753	499
13:27:21	75	1759	501
13:27:21	77	1759	503
13:27:21	79	1760	503
13:27:21	75	1762	505
13:27:21	80	1759	503
13:27:22	80	1771	508
13:27:22	80	1761	511
13:27:22	78	1761	499
13:27:22	73	1761	504
13:27:22	80	1762	507
13:27:22	79	1761	509
13:27:22	80	1760	509
13:27:22	81	1760	511
13:27:22	80	1761	509
13:27:22	81	1761	511
13:27:22	80	1760	509
13:27:22	80	1761	511
13:27:22	80	1761	509
13:27:22	80	1763	507
13:27:22	80	1763	507
13:27:22	80	1762	511
13:27:22	80	1763	506
13:27:22	80	1762	505
13:27:22	81	1761	509
13:27:22	80	1763	510
13:27:22	79	1763	506
13:27:22	80	1762	509
13:27:22	77	1760	507
13:27:22	82	1762	511
13:27:22	80	1760	507
13:27:22	80	1761	502
13:27:22	80	1762	507
13:27:22	82	1765	522
13:27:22	80	1762	511
13:27:22	81	1762	511
13:27:22	80	1763	511
13:27:22	81	1762	528
13:27:22	80	1763	511
13:27:22	82	1760	511
13:27:22	83	1761	526
13:27:22	82	1761	525
13:27:22	82	1763	511
13:27:22	82	1762	525
13:27:22	83	1762	511
13:27:22	82	1763	525
13:27:22	80	1762	528
13:27:22	83	1761	524
13:27:22	83	1761	526
13:27:22	0	1765	39
13:27:22	0	1763	107
13:27:22	0	1764	162
13:27:22	0	1763	208
13:27:22	0	1765	241
13:27:22	0	1763	278
13:27:22	0	1765	316
13:27:22	0	1770	336
13:27:22	0	1764	363
13:27:22	0	1761	377
13:27:22	0	1763	394
13:27:22	0	1765	409
13:27:22	1	1764	415
13:27:22	14	1762	435
13:27:22	18	1762	442
13:27:22	26	1765	450
13:27:22	30	1763	449
13:27:22	36	1763	460
13:27:22	44	1769	469
13:27:22	48	1766	481
13:27:22	50	1759	475
13:27:22	54	1770	479
13:27:22	53	1763	483
13:27:22	63	1763	486
13:27:22	62	1765	490
13:27:22	65	1765	491
13:27:22	64	1763	496
13:27:22	70	1763	496
13:27:22	64	1765	489
13:27:22	64	1762	489
13:27:22	69	1763	498
13:27:22	69	1764	497
13:27:22	68	1762	499
13:27:22	73	1762	502
13:27:22	72	1764	499
13:27:22	75	1763	508
13:27:22	72	1763	498
13:27:22	70	1762	503
13:27:22	73	1763	497
13:27:22	73	1762	499
13:27:22	71	1762	501
13:27:22	75	1761	511
13:27:22	80	1763	506
13:27:22	79	1761	511
13:27:22	74	1763	502
13:27:22	76	1761	501
13:27:22	75	1761	505
13:27:22	79	1760	503
13:27:22	78	1762	507
13:27:22	79	1761	526
13:27:22	80	1762	511
13:27:22	80	1762	524
13:27:22	80	1760	509
13:27:22	79	1761	511
13:27:22	80	1760	509
13:27:22	80	1762	511
13:27:22	80	1760	511
13:27:22	80	1761	511
13:27:22	82	1761	525
13:27:22	78	1761	510
13:27:22	80	1761	509
13:27:22	0	1763	48
13:27:22	0	1767	122
13:27:22	0	1765	173
13:27:22	0	1767	224
13:27:22	0	1764	254
13:27:22	0	1764	289
13:27:22	0	1766	317
13:27:22	0	1765	350
13:27:22	0	1766	368
13:27:22	0	1765	387
13:27:22	0	1763	401
13:27:22	0	1770	44
13:27:22	407	1769	82
13:27:22	369	1766	127
13:27:22	341	1765	163
13:27:22	318	1769	194
13:27:22	302	1767	222
13:27:22	281	1766	243
13:27:22	269	1765	267
13:27:22	255	1765	279
13:27:22	243	1765	299
13:27:22	239	1765	313
13:27:22	230	1769	327
13:27:22	223	1760	337
13:27:22	220	1766	352
13:27:22	214	1765	362
13:27:22	209	1765	369
13:27:22	208	1767	375
13:27:22	203	1756	386
13:27:22	202	1765	390
13:27:22	197	1765	400
13:27:22	196	1763	403
13:27:22	191	1762	412
13:27:22	195	1765	416
13:27:22	194	1764	422
13:27:22	193	1762	426
13:27:22	192	1763	431
13:27:22	191	1762	434
13:27:22	187	1763	435
13:27:22	190	1767	441
13:27:22	190	1764	447
13:27:22	189	1763	448
13:27:22	189	1765	454
13:27:22	186	1761	449
13:27:22	188	1763	450
13:27:22	186	1763	454
13:27:22	187	1769	454
13:27:22	189	1762	463
13:27:23	185	1763	465
13:27:23	186	1763	464
13:27:23	192	1766	467
13:27:23	179	1764	464
13:27:23	183	1762	466
13:27:23	182	1763	467
13:27:23	181	1763	471
13:27:23	182	1766	475
13:27:23	186	1765	481
13:27:23	187	1763	478
13:27:23	192	1761	483
13:27:23	181	1763	475
13:27:23	186	1763	478
13:27:23	186	1761	482
13:27:23	187	1762	485
13:27:23	185	1760	485
13:27:23	186	1762	485
13:27:23	185	1761	487
13:27:23	189	1765	481
13:27:23	184	1763	486
13:27:23	181	1763	487
13:27:23	186	1763	491
13:27:23	183	1762	493
13:27:23	184	1764	490
13:27:23	185	1762	494
13:27:23	183	1762	495
13:27:23	182	1761	491
13:27:23	178	1760	494
13:27:23	180	1764	493
13:27:23	187	1763	497
13:27:23	181	1760	497
13:27:23	183	1762	496
13:27:23	183	1763	497
13:27:23	183	1762	497
13:27:23	178	1763	496
13:27:23	181	1766	496
13:27:23	180	1763	497
13:27:23	185	1764	503
13:27:23	182	1763	501
13:27:23	184	1760	506
13:27:23	181	1761	502
13:27:23	181	1761	506
13:27:23	176	1762	498
13:27:23	177	1763	501
13:27:23	185	1762	505
13:27:23	179	1760	509
13:27:23	176	1765	511
13:27:23	176	1760	511
13:27:23	176	1761	509
13:27:23	176	1763	511
13:27:23	176	1762	508
13:27:23	175	1763	509
13:27:23	175	1760	509
13:27:24	176	1762	510
13:27:24	176	1761	511
13:27:24	180	1761	511
13:27:24	176	1762	511
13:27:24	184	1763	526
13:27:24	175	1760	511
13:27:24	176	1762	511
13:27:24	175	1761	511
13:27:24	176	1761	526
13:27:24	177	1762	526
13:27:24	176	1763	528
13:27:24	176	1761	533
13:27:24	176	1767	528
13:27:24	176	1761	526
13:27:24	176	1762	525
13:27:24	176	1761	525
13:27:24	176	1762	528
13:27:24	176	1761	527
13:27:24	176	1764	529
13:27:24	175	1765	528
13:27:24	166	1755	530
13:27:24	172	1762	526
13:27:24	171	1763	526
13:27:24	164	1761	530
13:27:24	175	1761	529
13:27:24	174	1763	529
13:27:24	176	1764	531
13:27:24	175	1762	529
13:27:24	175	1763	524
13:27:24	173	1762	528
13:27:24	173	1761	529
13:27:24	178	1761	531
13:27:24	175	1763	530
13:27:24	174	1763	530
13:27:24	176	1764	531
13:27:24	175	1763	531
13:27:24	175	1763	528
13:27:24	171	1761	529
13:27:24	172	1761	530
13:27:24	179	1763	537
13:27:24	176	1762	534
13:27:24	173	1764	535
13:27:24	175	1762	532
13:27:24	176	1763	539
13:27:24	174	1761	530
13:27:24	176	1763	530
13:27:24	175	1762	533
13:27:24	176	1761	538
13:27:24	176	1762	537
13:27:24	177	1762	539
13:27:24	181	1762	539
13:27:24	180	1763	539
13:27:24	179	1763	535
13:27:24	178	1761	538
13:27:24	177	1763	538
13:27:24	177	1762	542
13:27:24	176	1762	544
13:27:24	176	1763	543
13:27:24	178	1762	544
13:27:24	180	1763	545
13:27:24	179	1762	538
13:27:24	180	1763	540
13:27:24	183	1762	541
13:27:24	186	1762	546
13:27:24	182	1751	545
13:27:24	184	1762	544
13:27:24	186	1762	546
13:27:24	183	1763	550
13:27:24	182	1763	544
13:27:24	182	1762	542
13:27:24	183	1761	545
13:27:24	189	1762	549
13:27:24	189	1761	548
13:27:24	192	1763	556
13:27:24	191	1762	549
13:27:24	192	1761	551
13:27:24	192	1766	544
13:27:24	187	1762	546
13:27:24	194	1763	545
13:27:24	197	1760	549
13:27:24	195	1762	546
13:27:24	196	1761	552
13:27:24	194	1761	546
13:27:24	193	1761	550
13:27:24	191	1763	544
13:27:24	191	1763	543
13:27:24	190	1761	551
13:27:24	190	1762	547
13:27:24	186	1762	549
13:27:24	178	1763	555
13:27:24	186	1762	547
13:27:24	188	1767	555
13:27:24	182	1771	538
13:27:24	185	1762	545
13:27:24	186	1763	546
13:27:24	187	1762	551
13:27:24	183	1759	554
13:27:24	190	1762	554
13:27:24	186	1761	551
13:27:24	185	1762	544
13:27:24	176	1763	546
13:27:24	179	1762	547
13:27:24	189	1761	549
13:27:24	192	1761	551
13:27:24	192	1763	549
13:27:24	193	1763	549
13:27:24	190	1773	550
13:27:24	192	1762	542
13:27:24	189	1762	546
13:27:24	188	1762	546
13:27:24	189	1761	550
13:27:24	188	1761	548
13:27:24	190	1761	547
13:27:24	187	1761	545
13:27:24	187	1763	551
13:27:24	183	1762	542
13:27:24	187	1761	544
13:27:24	190	1762	544
13:27:24	187	1762	545
13:27:24	192	1761	544
13:27:24	194	1760	543
13:27:24	193	1757	544
13:27:24	192	1763	545
13:27:24	190	1761	542
13:27:24	183	1761	543
13:27:24	192	1762	546
13:27:24	198	1758	546
13:27:24	208	1759	545
13:27:24	208	1761	545
13:27:24	217	1763	544
13:27:24	223	1763	544
13:27:24	224	1762	539
13:27:24	227	1761	538
13:27:24	228	1765	541
13:27:24	231	1762	539
13:27:24	235	1761	541
13:27:24	238	1761	545
