"sep=	"
Shimmer_Timestamp	Shimmer_EMG_ENV	Shimmer_EMG_RAW	Shimmer_EMG_REF
hh:mm:ss	unit	unit	unit
15:06:09	196.0000	367.0000	0
15:06:09	204.0000	331.0000	0
15:06:09	201.0000	304.0000	0
15:06:09	203.0000	280.0000	0
15:06:09	201.0000	367.0000	0
15:06:09	201.0000	336.0000	0
15:06:09	201.0000	311.0000	0
15:06:09	198.0000	279.0000	0
15:06:09	197.0000	368.0000	0
15:06:09	199.0000	336.0000	0
15:06:09	202.0000	304.0000	0
15:06:09	194.0000	383.0000	0
15:06:09	198.0000	346.0000	0
15:06:09	198.0000	317.0000	0
15:06:09	203.0000	288.0000	0
15:06:09	198.0000	373.0000	0
15:06:09	198.0000	336.0000	0
15:06:09	196.0000	307.0000	0
15:06:09	199.0000	285.0000	0
15:06:09	199.0000	369.0000	0
15:06:09	202.0000	336.0000	0
15:06:09	201.0000	304.0000	0
15:06:09	201.0000	281.0000	0
15:06:09	197.0000	373.0000	0
15:06:09	197.0000	335.0000	0
15:06:09	197.0000	307.0000	0
15:06:09	197.0000	282.0000	0
15:06:09	194.0000	371.0000	0
15:06:09	193.0000	323.0000	0
15:06:09	201.0000	307.0000	0
15:06:09	195.0000	281.0000	0
15:06:09	199.0000	370.0000	0
15:06:09	198.0000	336.0000	0
15:06:09	199.0000	304.0000	0
15:06:09	199.0000	278.0000	0
15:06:09	197.0000	371.0000	0
15:06:09	193.0000	333.0000	0
15:06:09	195.0000	304.0000	0
15:06:09	197.0000	281.0000	0
15:06:09	196.0000	370.0000	0
15:06:09	198.0000	335.0000	0
15:06:09	198.0000	304.0000	0
15:06:09	194.0000	279.0000	0
15:06:09	197.0000	373.0000	0
15:06:09	194.0000	335.0000	0
15:06:09	197.0000	304.0000	0
15:06:09	202.0000	383.0000	0
15:06:09	201.0000	343.0000	0
15:06:09	204.0000	315.0000	0
15:06:09	199.0000	287.0000	0
15:06:09	199.0000	376.0000	0
15:06:09	202.0000	336.0000	0
15:06:09	199.0000	307.0000	0
15:06:09	201.0000	281.0000	0
15:06:09	196.0000	359.0000	0
15:06:09	193.0000	336.0000	0
15:06:09	194.0000	299.0000	0
15:06:09	194.0000	278.0000	0
15:06:09	193.0000	371.0000	0
15:06:09	196.0000	336.0000	0
15:06:09	192.0000	305.0000	0
15:06:09	199.0000	286.0000	0
15:06:09	195.0000	361.0000	0
15:06:09	196.0000	338.0000	0
15:06:09	197.0000	299.0000	0
15:06:09	194.0000	291.0000	0
15:06:09	197.0000	371.0000	0
15:06:09	193.0000	336.0000	0
15:06:09	199.0000	305.0000	0
15:06:09	197.0000	282.0000	0
15:06:09	192.0000	371.0000	0
15:06:09	192.0000	335.0000	0
15:06:09	192.0000	305.0000	0
15:06:09	192.0000	280.0000	0
15:06:09	195.0000	362.0000	0
15:06:09	195.0000	336.0000	0
15:06:09	196.0000	306.0000	0
15:06:09	195.0000	282.0000	0
15:06:09	197.0000	372.0000	0
15:06:09	193.0000	343.0000	0
15:06:09	196.0000	304.0000	0
15:06:09	192.0000	384.0000	0
15:06:09	192.0000	342.0000	0
15:06:09	193.0000	312.0000	0
15:06:09	196.0000	290.0000	0
15:06:09	197.0000	370.0000	0
15:06:09	195.0000	328.0000	0
15:06:09	193.0000	307.0000	0
15:06:09	196.0000	288.0000	0
15:06:09	198.0000	369.0000	0
15:06:09	200.0000	336.0000	0
15:06:09	193.0000	304.0000	0
15:06:09	198.0000	284.0000	0
15:06:09	202.0000	370.0000	0
15:06:09	203.0000	336.0000	0
15:06:09	194.0000	310.0000	0
15:06:09	202.0000	283.0000	0
15:06:09	194.0000	370.0000	0
15:06:09	199.0000	336.0000	0
15:06:09	193.0000	306.0000	0
15:06:09	198.0000	282.0000	0
15:06:09	204.0000	373.0000	0
15:06:09	194.0000	322.0000	0
15:06:09	198.0000	310.0000	0
15:06:09	199.0000	286.0000	0
15:06:09	209.0000	373.0000	0
15:06:09	197.0000	326.0000	0
15:06:09	199.0000	306.0000	0
15:06:09	192.0000	272.0000	0
15:06:09	204.0000	370.0000	0
15:06:09	201.0000	336.0000	0
15:06:09	200.0000	305.0000	0
15:06:09	201.0000	284.0000	0
15:06:09	201.0000	370.0000	0
15:06:09	206.0000	336.0000	0
15:06:09	207.0000	307.0000	0
15:06:09	205.0000	281.0000	0
15:06:09	193.0000	369.0000	0
15:06:10	197.0000	336.0000	0
15:06:10	190.0000	305.0000	0
15:06:10	197.0000	384.0000	0
15:06:10	192.0000	341.0000	0
15:06:10	195.0000	316.0000	0
15:06:10	198.0000	292.0000	0
15:06:10	197.0000	375.0000	0
15:06:10	192.0000	336.0000	0
15:06:10	197.0000	307.0000	0
15:06:10	201.0000	285.0000	0
15:06:10	202.0000	371.0000	0
15:06:10	203.0000	335.0000	0
15:06:10	197.0000	306.0000	0
15:06:10	210.0000	291.0000	0
15:06:10	197.0000	373.0000	0
15:06:10	202.0000	336.0000	0
15:06:10	199.0000	308.0000	0
15:06:10	208.0000	292.0000	0
15:06:10	201.0000	372.0000	0
15:06:10	201.0000	336.0000	0
15:06:10	197.0000	310.0000	0
15:06:10	208.0000	293.0000	0
15:06:10	193.0000	363.0000	0
15:06:10	200.0000	336.0000	0
15:06:10	202.0000	304.0000	0
15:06:10	203.0000	283.0000	0
15:06:10	196.0000	365.0000	0
15:06:10	192.0000	334.0000	0
15:06:10	195.0000	306.0000	0
15:06:10	203.0000	288.0000	0
15:06:10	194.0000	372.0000	0
15:06:10	188.0000	336.0000	0
15:06:10	192.0000	306.0000	0
15:06:10	202.0000	290.0000	0
15:06:10	198.0000	372.0000	0
15:06:10	192.0000	336.0000	0
15:06:10	194.0000	304.0000	0
15:06:10	198.0000	383.0000	0
15:06:10	196.0000	344.0000	0
15:06:10	197.0000	302.0000	0
15:06:10	197.0000	287.0000	0
15:06:10	198.0000	384.0000	0
15:06:10	197.0000	337.0000	0
15:06:10	192.0000	308.0000	0
15:06:10	197.0000	286.0000	0
15:06:10	198.0000	379.0000	0
15:06:10	203.0000	336.0000	0
15:06:10	192.0000	305.0000	0
15:06:10	205.0000	285.0000	0
15:06:10	204.0000	370.0000	0
15:06:10	198.0000	336.0000	0
15:06:10	202.0000	308.0000	0
15:06:10	206.0000	284.0000	0
15:06:10	208.0000	372.0000	0
15:06:10	208.0000	336.0000	0
15:06:10	202.0000	307.0000	0
15:06:10	207.0000	285.0000	0
15:06:10	206.0000	378.0000	0
15:06:10	199.0000	326.0000	0
15:06:10	202.0000	310.0000	0
15:06:10	208.0000	274.0000	0
15:06:10	204.0000	368.0000	0
15:06:10	205.0000	336.0000	0
15:06:10	205.0000	307.0000	0
15:06:10	202.0000	282.0000	0
15:06:10	206.0000	370.0000	0
15:06:10	207.0000	335.0000	0
15:06:10	207.0000	308.0000	0
15:06:10	205.0000	280.0000	0
15:06:10	205.0000	372.0000	0
15:06:10	206.0000	336.0000	0
15:06:10	207.0000	311.0000	0
15:06:10	204.0000	284.0000	0
15:06:10	207.0000	375.0000	0
15:06:10	208.0000	336.0000	0
15:06:10	208.0000	309.0000	0
15:06:10	207.0000	384.0000	0
15:06:10	202.0000	343.0000	0
15:06:10	206.0000	318.0000	0
15:06:10	214.0000	304.0000	0
15:06:10	208.0000	380.0000	0
15:06:10	210.0000	352.0000	0
15:06:10	208.0000	311.0000	0
15:06:10	212.0000	300.0000	0
15:06:10	192.0000	366.0000	0
15:06:10	211.0000	342.0000	0
15:06:10	210.0000	320.0000	0
15:06:10	208.0000	295.0000	0
15:06:10	203.0000	373.0000	0
15:06:10	199.0000	349.0000	0
15:06:10	205.0000	306.0000	0
15:06:10	202.0000	287.0000	0
15:06:10	207.0000	375.0000	0
15:06:10	207.0000	336.0000	0
15:06:10	205.0000	311.0000	0
15:06:10	208.0000	286.0000	0
15:06:10	208.0000	375.0000	0
15:06:10	206.0000	343.0000	0
15:06:10	208.0000	315.0000	0
15:06:10	208.0000	291.0000	0
15:06:10	214.0000	385.0000	0
15:06:10	206.0000	336.0000	0
15:06:10	208.0000	311.0000	0
15:06:10	204.0000	274.0000	0
15:06:10	208.0000	375.0000	0
15:06:10	206.0000	338.0000	0
15:06:10	206.0000	308.0000	0
15:06:10	208.0000	287.0000	0
15:06:10	206.0000	378.0000	0
15:06:10	204.0000	336.0000	0
15:06:10	204.0000	311.0000	0
15:06:10	215.0000	398.0000	0
15:06:10	206.0000	346.0000	0
15:06:10	206.0000	320.0000	0
15:06:10	205.0000	293.0000	0
15:06:10	213.0000	386.0000	0
15:06:10	208.0000	341.0000	0
15:06:10	204.0000	305.0000	0
15:06:10	208.0000	282.0000	0
15:06:10	208.0000	382.0000	0
15:06:10	204.0000	336.0000	0
15:06:10	204.0000	327.0000	0
15:06:10	204.0000	285.0000	0
15:06:10	209.0000	384.0000	0
15:06:10	206.0000	336.0000	0
15:06:10	208.0000	316.0000	0
15:06:10	208.0000	284.0000	0
15:06:10	208.0000	385.0000	0
15:06:10	204.0000	337.0000	0
15:06:10	201.0000	317.0000	0
15:06:10	206.0000	283.0000	0
15:06:10	205.0000	385.0000	0
15:06:10	198.0000	337.0000	0
15:06:10	198.0000	319.0000	0
15:06:10	199.0000	285.0000	0
15:06:10	196.0000	378.0000	0
15:06:10	193.0000	339.0000	0
15:06:10	193.0000	319.0000	0
15:06:10	192.0000	285.0000	0
15:06:10	192.0000	369.0000	0
15:06:10	192.0000	336.0000	0
15:06:10	202.0000	318.0000	0
15:06:10	192.0000	281.0000	0
15:06:10	205.0000	373.0000	0
15:06:10	199.0000	336.0000	0
15:06:10	201.0000	319.0000	0
15:06:10	202.0000	282.0000	0
15:06:10	209.0000	371.0000	0
15:06:10	213.0000	349.0000	0
15:06:10	208.0000	321.0000	0
15:06:10	206.0000	386.0000	0
15:06:10	211.0000	359.0000	0
15:06:10	210.0000	319.0000	0
15:06:10	213.0000	294.0000	0
15:06:10	206.0000	378.0000	0
15:06:10	203.0000	353.0000	0
15:06:10	202.0000	313.0000	0
15:06:10	202.0000	289.0000	0
15:06:10	202.0000	374.0000	0
15:06:10	202.0000	351.0000	0
15:06:10	205.0000	311.0000	0
15:06:10	201.0000	287.0000	0
15:06:10	202.0000	376.0000	0
15:06:10	202.0000	351.0000	0
15:06:10	203.0000	311.0000	0
15:06:10	202.0000	288.0000	0
15:06:10	198.0000	377.0000	0
15:06:10	198.0000	338.0000	0
15:06:10	199.0000	312.0000	0
15:06:10	197.0000	289.0000	0
15:06:10	205.0000	377.0000	0
15:06:10	198.0000	339.0000	0
15:06:10	198.0000	315.0000	0
15:06:10	222.0000	286.0000	0
15:06:10	208.0000	375.0000	0
15:06:10	203.0000	340.0000	0
15:06:10	202.0000	311.0000	0
15:06:10	205.0000	285.0000	0
15:06:10	208.0000	383.0000	0
15:06:10	195.0000	336.0000	0
15:06:10	198.0000	307.0000	0
15:06:10	195.0000	286.0000	0
15:06:10	206.0000	377.0000	0
15:06:10	201.0000	339.0000	0
15:06:10	203.0000	309.0000	0
15:06:10	214.0000	398.0000	0
15:06:10	199.0000	347.0000	0
15:06:10	205.0000	317.0000	0
15:06:10	208.0000	292.0000	0
15:06:10	208.0000	389.0000	0
15:06:10	197.0000	338.0000	0
15:06:10	199.0000	313.0000	0
15:06:10	199.0000	288.0000	0
15:06:10	204.0000	387.0000	0
15:06:10	196.0000	337.0000	0
15:06:10	194.0000	309.0000	0
15:06:10	202.0000	286.0000	0
15:06:10	208.0000	387.0000	0
15:06:10	199.0000	337.0000	0
15:06:10	202.0000	308.0000	0
15:06:10	203.0000	286.0000	0
15:06:10	208.0000	385.0000	0
15:06:10	202.0000	349.0000	0
15:06:10	201.0000	301.0000	0
15:06:10	206.0000	285.0000	0
15:06:10	199.0000	384.0000	0
15:06:10	199.0000	337.0000	0
15:06:10	198.0000	310.0000	0
15:06:10	202.0000	284.0000	0
15:06:10	197.0000	382.0000	0
15:06:10	199.0000	343.0000	0
15:06:10	201.0000	299.0000	0
15:06:10	199.0000	287.0000	0
15:06:10	192.0000	380.0000	0
15:06:10	195.0000	336.0000	0
15:06:10	195.0000	300.0000	0
15:06:10	193.0000	286.0000	0
15:06:10	194.0000	378.0000	0
15:06:10	196.0000	346.0000	0
15:06:10	198.0000	304.0000	0
15:06:10	195.0000	283.0000	0
15:06:10	199.0000	384.0000	0
15:06:10	195.0000	335.0000	0
15:06:10	194.0000	306.0000	0
15:06:10	198.0000	384.0000	0
15:06:10	195.0000	345.0000	0
15:06:10	198.0000	317.0000	0
15:06:10	195.0000	297.0000	0
15:06:10	194.0000	374.0000	0
15:06:10	201.0000	338.0000	0
15:06:10	198.0000	307.0000	0
15:06:10	201.0000	285.0000	0
15:06:10	191.0000	373.0000	0
15:06:10	195.0000	337.0000	0
15:06:10	195.0000	307.0000	0
15:06:10	194.0000	285.0000	0
15:06:10	192.0000	375.0000	0
15:06:10	195.0000	336.0000	0
15:06:10	195.0000	309.0000	0
15:06:10	196.0000	286.0000	0
15:06:10	193.0000	384.0000	0
15:06:10	194.0000	325.0000	0
15:06:10	195.0000	309.0000	0
15:06:10	205.0000	284.0000	0
15:06:10	195.0000	384.0000	0
15:06:10	195.0000	329.0000	0
15:06:10	197.0000	311.0000	0
15:06:10	196.0000	283.0000	0
15:06:10	192.0000	372.0000	0
15:06:10	195.0000	337.0000	0
15:06:10	193.0000	306.0000	0
15:06:10	192.0000	282.0000	0
15:06:10	197.0000	375.0000	0
15:06:10	192.0000	337.0000	0
15:06:10	192.0000	309.0000	0
15:06:10	192.0000	282.0000	0
15:06:10	195.0000	374.0000	0
15:06:10	195.0000	337.0000	0
15:06:10	192.0000	310.0000	0
15:06:10	193.0000	284.0000	0
15:06:10	196.0000	372.0000	0
15:06:10	192.0000	336.0000	0
15:06:10	192.0000	306.0000	0
15:06:10	205.0000	397.0000	0
15:06:10	192.0000	345.0000	0
15:06:10	197.0000	318.0000	0
15:06:10	194.0000	289.0000	0
15:06:10	208.0000	385.0000	0
15:06:11	196.0000	337.0000	0
15:06:11	198.0000	308.0000	0
15:06:11	195.0000	283.0000	0
15:06:11	206.0000	385.0000	0
15:06:11	195.0000	336.0000	0
15:06:11	199.0000	304.0000	0
15:06:11	196.0000	283.0000	0
15:06:11	204.0000	384.0000	0
15:06:11	194.0000	337.0000	0
15:06:11	193.0000	308.0000	0
15:06:11	193.0000	286.0000	0
15:06:11	207.0000	384.0000	0
15:06:11	197.0000	336.0000	0
15:06:11	202.0000	311.0000	0
15:06:11	199.0000	286.0000	0
15:06:11	204.0000	384.0000	0
15:06:11	198.0000	336.0000	0
15:06:11	199.0000	305.0000	0
15:06:11	202.0000	285.0000	0
15:06:11	203.0000	387.0000	0
15:06:11	194.0000	336.0000	0
15:06:11	193.0000	317.0000	0
15:06:11	195.0000	285.0000	0
15:06:11	201.0000	384.0000	0
15:06:11	195.0000	336.0000	0
15:06:11	198.0000	317.0000	0
15:06:11	196.0000	285.0000	0
15:06:11	194.0000	379.0000	0
15:06:11	194.0000	346.0000	0
15:06:11	202.0000	309.0000	0
15:06:11	192.0000	287.0000	0
15:06:11	208.0000	370.0000	0
15:06:11	210.0000	346.0000	0
15:06:11	213.0000	320.0000	0
15:06:11	218.0000	368.0000	0
15:06:11	222.0000	347.0000	0
15:06:11	215.0000	320.0000	0
15:06:11	214.0000	294.0000	0
15:06:11	209.0000	379.0000	0
15:06:11	208.0000	350.0000	0
15:06:11	210.0000	311.0000	0
15:06:11	208.0000	288.0000	0
15:06:11	203.0000	375.0000	0
15:06:11	198.0000	339.0000	0
15:06:11	202.0000	307.0000	0
15:06:11	198.0000	287.0000	0
15:06:11	211.0000	375.0000	0
15:06:11	209.0000	351.0000	0
15:06:11	210.0000	313.0000	0
15:06:11	213.0000	290.0000	0
15:06:11	209.0000	385.0000	0
15:06:11	204.0000	348.0000	0
15:06:11	207.0000	315.0000	0
15:06:11	205.0000	286.0000	0
15:06:11	207.0000	371.0000	0
15:06:11	207.0000	335.0000	0
15:06:11	205.0000	308.0000	0
15:06:11	206.0000	285.0000	0
15:06:11	208.0000	374.0000	0
15:06:11	208.0000	336.0000	0
15:06:11	209.0000	311.0000	0
15:06:11	218.0000	288.0000	0
15:06:11	336.0000	385.0000	0
15:06:11	347.0000	351.0000	0
15:06:11	362.0000	331.0000	0
15:06:11	370.0000	314.0000	0
15:06:11	407.0000	395.0000	0
15:06:11	406.0000	366.0000	0
15:06:11	407.0000	344.0000	0
15:06:11	368.0000	403.0000	0
15:06:11	367.0000	374.0000	0
15:06:11	365.0000	351.0000	0
15:06:11	362.0000	331.0000	0
15:06:11	320.0000	393.0000	0
15:06:11	319.0000	361.0000	0
15:06:11	317.0000	336.0000	0
15:06:11	315.0000	315.0000	0
15:06:11	282.0000	393.0000	0
15:06:11	281.0000	355.0000	0
15:06:11	281.0000	327.0000	0
15:06:11	277.0000	304.0000	0
15:06:11	261.0000	385.0000	0
15:06:11	261.0000	356.0000	0
15:06:11	263.0000	324.0000	0
15:06:11	259.0000	304.0000	0
15:06:11	304.0000	387.0000	0
15:06:11	305.0000	353.0000	0
15:06:11	304.0000	327.0000	0
15:06:11	304.0000	305.0000	0
15:06:11	292.0000	386.0000	0
15:06:11	285.0000	353.0000	0
15:06:11	298.0000	330.0000	0
15:06:11	299.0000	307.0000	0
15:06:11	315.0000	383.0000	0
15:06:11	319.0000	362.0000	0
15:06:11	322.0000	334.0000	0
15:06:11	321.0000	317.0000	0
15:06:11	393.0000	395.0000	0
15:06:11	396.0000	363.0000	0
15:06:11	398.0000	339.0000	0
15:06:11	397.0000	320.0000	0
15:06:11	407.0000	400.0000	0
15:06:11	405.0000	368.0000	0
15:06:11	400.0000	347.0000	0
15:06:11	466.0000	414.0000	0
15:06:11	464.0000	375.0000	0
15:06:11	464.0000	367.0000	0
15:06:11	458.0000	341.0000	0
15:06:11	533.0000	413.0000	0
15:06:11	534.0000	380.0000	0
15:06:11	541.0000	370.0000	0
15:06:11	551.0000	347.0000	0
15:06:11	593.0000	419.0000	0
15:06:11	591.0000	395.0000	0
15:06:11	579.0000	379.0000	0
15:06:11	574.0000	352.0000	0
15:06:11	511.0000	423.0000	0
15:06:11	508.0000	395.0000	0
15:06:11	503.0000	371.0000	0
15:06:11	498.0000	354.0000	0
15:06:11	561.0000	420.0000	0
15:06:11	560.0000	398.0000	0
15:06:11	558.0000	379.0000	0
15:06:11	551.0000	347.0000	0
15:06:11	528.0000	416.0000	0
15:06:11	511.0000	384.0000	0
15:06:11	511.0000	375.0000	0
15:06:11	511.0000	355.0000	0
15:06:11	617.0000	427.0000	0
15:06:11	624.0000	386.0000	0
15:06:11	631.0000	385.0000	0
15:06:11	640.0000	356.0000	0
15:06:11	856.0000	438.0000	0
15:06:11	866.0000	426.0000	0
15:06:11	864.0000	416.0000	0
15:06:11	858.0000	403.0000	0
15:06:11	827.0000	459.0000	0
15:06:11	838.0000	438.0000	0
15:06:11	842.0000	430.0000	0
15:06:11	845.0000	414.0000	0
15:06:11	852.0000	464.0000	0
15:06:11	864.0000	445.0000	0
15:06:11	877.0000	435.0000	0
15:06:11	860.0000	470.0000	0
15:06:11	869.0000	453.0000	0
15:06:11	880.0000	439.0000	0
15:06:11	882.0000	432.0000	0
15:06:11	993.0000	480.0000	0
15:06:11	995.0000	463.0000	0
15:06:11	1004.0000	456.0000	0
15:06:11	1018.0000	447.0000	0
15:06:11	1070.0000	495.0000	0
15:06:11	1061.0000	482.0000	0
15:06:11	1056.0000	469.0000	0
15:06:11	1043.0000	462.0000	0
15:06:11	1042.0000	498.0000	0
15:06:11	1059.0000	482.0000	0
15:06:11	1074.0000	479.0000	0
15:06:11	1104.0000	467.0000	0
15:06:11	1006.0000	497.0000	0
15:06:11	1007.0000	482.0000	0
15:06:11	1012.0000	474.0000	0
15:06:11	1168.0000	511.0000	0
15:06:11	1181.0000	494.0000	0
15:06:11	1200.0000	498.0000	0
15:06:11	1216.0000	496.0000	0
15:06:11	1386.0000	531.0000	0
15:06:11	1378.0000	533.0000	0
15:06:11	1361.0000	533.0000	0
15:06:11	1349.0000	529.0000	0
15:06:11	1232.0000	551.0000	0
15:06:11	1230.0000	535.0000	0
15:06:11	1232.0000	528.0000	0
15:06:11	1217.0000	507.0000	0
15:06:11	1399.0000	555.0000	0
15:06:11	1433.0000	549.0000	0
15:06:11	1450.0000	555.0000	0
15:06:11	1445.0000	556.0000	0
15:06:11	1751.0000	589.0000	0
15:06:11	1760.0000	595.0000	0
15:06:11	1744.0000	609.0000	0
15:06:11	1503.0000	610.0000	0
15:06:11	1493.0000	607.0000	0
15:06:11	1482.0000	602.0000	0
15:06:11	1466.0000	607.0000	0
15:06:11	1373.0000	595.0000	0
15:06:11	1385.0000	591.0000	0
15:06:11	1392.0000	584.0000	0
15:06:11	1409.0000	577.0000	0
15:06:11	1711.0000	602.0000	0
15:06:11	1739.0000	609.0000	0
15:06:11	1744.0000	624.0000	0
15:06:11	1750.0000	623.0000	0
15:06:11	1634.0000	629.0000	0
15:06:11	1625.0000	628.0000	0
15:06:11	1599.0000	631.0000	0
15:06:11	1535.0000	626.0000	0
15:06:11	1575.0000	624.0000	0
15:06:11	1555.0000	624.0000	0
15:06:11	1575.0000	624.0000	0
15:06:11	1535.0000	624.0000	0
15:06:11	1535.0000	615.0000	0
15:06:11	1527.0000	619.0000	0
15:06:11	1569.0000	615.0000	0
15:06:11	1744.0000	625.0000	0
15:06:11	1737.0000	629.0000	0
15:06:11	1727.0000	639.0000	0
15:06:11	1719.0000	642.0000	0
15:06:11	1668.0000	642.0000	0
15:06:11	1662.0000	639.0000	0
15:06:11	1648.0000	641.0000	0
15:06:11	1625.0000	629.0000	0
15:06:11	1616.0000	635.0000	0
15:06:11	1616.0000	627.0000	0
15:06:11	1630.0000	638.0000	0
15:06:11	1719.0000	640.0000	0
15:06:11	1714.0000	644.0000	0
15:06:11	1715.0000	655.0000	0
15:06:11	1725.0000	657.0000	0
15:06:12	1739.0000	653.0000	0
15:06:12	1762.0000	656.0000	0
15:06:12	1788.0000	659.0000	0
15:06:12	1796.0000	661.0000	1
15:06:12	2062.0000	676.0000	0
15:06:12	2064.0000	688.0000	0
15:06:12	2071.0000	706.0000	0
15:06:12	2098.0000	714.0000	10
15:06:12	2790.0000	754.0000	0
15:06:12	2761.0000	799.0000	0
15:06:12	2724.0000	831.0000	9
15:06:12	3134.0000	858.0000	0
15:06:12	3165.0000	899.0000	0
15:06:12	3171.0000	943.0000	21
15:06:12	3207.0000	971.0000	39
15:06:12	3213.0000	1006.0000	0
15:06:12	3169.0000	1044.0000	4
15:06:12	3115.0000	1052.0000	29
15:06:12	3056.0000	1074.0000	48
15:06:12	3667.0000	1110.0000	0
15:06:12	3664.0000	1150.0000	21
15:06:12	3676.0000	1168.0000	43
15:06:12	3687.0000	1192.0000	0
15:06:12	3682.0000	1215.0000	18
15:06:12	3680.0000	1227.0000	48
15:06:12	3675.0000	1238.0000	68
15:06:12	3680.0000	1268.0000	0
15:06:12	3686.0000	1290.0000	23
15:06:12	3671.0000	1287.0000	52
15:06:12	3694.0000	1299.0000	78
15:06:12	3694.0000	1328.0000	0
15:06:12	3682.0000	1330.0000	30
15:06:12	3713.0000	1328.0000	58
15:06:12	3691.0000	1341.0000	0
15:06:12	3682.0000	1337.0000	29
15:06:12	3685.0000	1333.0000	59
15:06:12	3687.0000	1338.0000	81
15:06:12	3696.0000	1367.0000	0
15:06:12	3683.0000	1361.0000	26
15:06:12	3691.0000	1358.0000	64
15:06:12	3686.0000	1353.0000	81
15:06:12	3692.0000	1386.0000	0
15:06:12	3683.0000	1375.0000	32
15:06:12	3683.0000	1367.0000	64
15:06:12	3692.0000	1380.0000	0
15:06:12	3686.0000	1373.0000	32
15:06:12	3659.0000	1364.0000	62
15:06:12	3682.0000	1360.0000	82
15:06:12	3671.0000	1386.0000	0
15:06:12	3683.0000	1388.0000	36
15:06:12	3687.0000	1374.0000	65
15:06:12	3687.0000	1376.0000	83
15:06:12	3689.0000	1403.0000	0
15:06:12	3677.0000	1389.0000	35
15:06:12	3678.0000	1381.0000	64
15:06:12	3695.0000	1392.0000	0
15:06:12	3687.0000	1383.0000	34
15:06:12	3683.0000	1376.0000	64
15:06:12	3685.0000	1371.0000	85
15:06:12	3694.0000	1397.0000	0
15:06:12	3687.0000	1390.0000	33
15:06:12	3687.0000	1378.0000	64
15:06:12	3689.0000	1378.0000	83
15:06:12	3694.0000	1403.0000	0
15:06:12	3689.0000	1394.0000	32
15:06:12	3680.0000	1387.0000	64
15:06:12	3685.0000	1394.0000	0
15:06:12	3682.0000	1390.0000	32
15:06:12	3694.0000	1375.0000	66
15:06:12	3689.0000	1371.0000	87
15:06:12	3685.0000	1404.0000	3
15:06:12	3687.0000	1393.0000	32
15:06:12	3687.0000	1384.0000	64
15:06:12	3686.0000	1379.0000	87
15:06:12	3683.0000	1409.0000	0
15:06:12	3683.0000	1395.0000	33
15:06:12	3697.0000	1384.0000	66
15:06:12	3687.0000	1402.0000	0
15:06:12	3685.0000	1390.0000	44
15:06:12	3687.0000	1381.0000	65
15:06:12	3693.0000	1376.0000	84
15:06:12	3696.0000	1417.0000	1
15:06:12	3674.0000	1399.0000	43
15:06:12	3700.0000	1388.0000	64
15:06:12	3693.0000	1382.0000	87
15:06:12	3684.0000	1421.0000	0
15:06:12	3686.0000	1385.0000	45
15:06:12	3685.0000	1388.0000	64
15:06:12	3712.0000	1412.0000	0
15:06:12	3693.0000	1387.0000	44
15:06:12	3696.0000	1378.0000	79
15:06:12	3690.0000	1376.0000	93
15:06:12	3713.0000	1419.0000	0
15:06:12	3689.0000	1395.0000	33
15:06:12	3692.0000	1371.0000	80
15:06:12	3689.0000	1377.0000	91
15:06:12	3714.0000	1413.0000	0
15:06:12	3691.0000	1390.0000	43
15:06:12	3694.0000	1374.0000	80
15:06:12	3696.0000	1402.0000	0
15:06:12	3687.0000	1391.0000	48
15:06:12	3695.0000	1375.0000	72
15:06:12	3690.0000	1372.0000	105
15:06:12	3697.0000	1413.0000	0
15:06:12	3690.0000	1398.0000	47
15:06:12	3695.0000	1383.0000	67
15:06:12	3712.0000	1414.0000	0
15:06:12	3685.0000	1390.0000	35
15:06:12	3692.0000	1379.0000	75
15:06:12	3694.0000	1371.0000	90
15:06:12	3713.0000	1422.0000	0
15:06:12	3689.0000	1398.0000	34
15:06:12	3693.0000	1393.0000	71
15:06:12	3693.0000	1381.0000	88
15:06:12	3712.0000	1417.0000	0
15:06:12	3689.0000	1400.0000	32
15:06:12	3696.0000	1391.0000	64
15:06:12	3677.0000	1393.0000	0
15:06:12	3701.0000	1395.0000	34
15:06:12	3690.0000	1387.0000	64
15:06:12	3696.0000	1381.0000	87
15:06:12	3701.0000	1394.0000	0
15:06:12	3713.0000	1408.0000	28
15:06:12	3696.0000	1403.0000	51
15:06:12	3695.0000	1386.0000	86
15:06:12	3696.0000	1419.0000	0
15:06:12	3707.0000	1416.0000	33
15:06:12	3712.0000	1397.0000	64
15:06:12	3690.0000	1408.0000	0
15:06:12	3696.0000	1392.0000	35
15:06:12	3690.0000	1387.0000	64
15:06:12	3696.0000	1381.0000	85
15:06:12	3686.0000	1412.0000	0
15:06:12	3689.0000	1401.0000	34
15:06:12	3707.0000	1392.0000	64
15:06:12	3683.0000	1387.0000	85
15:06:12	3696.0000	1418.0000	0
15:06:12	3691.0000	1407.0000	32
15:06:12	3710.0000	1398.0000	59
15:06:12	3696.0000	1407.0000	0
15:06:12	3688.0000	1391.0000	33
15:06:12	3696.0000	1385.0000	64
15:06:12	3712.0000	1390.0000	83
15:06:12	3699.0000	1418.0000	0
15:06:12	3694.0000	1399.0000	41
15:06:12	3693.0000	1380.0000	65
15:06:12	3713.0000	1393.0000	85
15:06:12	3699.0000	1422.0000	0
15:06:12	3697.0000	1407.0000	34
15:06:12	3696.0000	1397.0000	64
15:06:12	3695.0000	1407.0000	0
15:06:12	3693.0000	1395.0000	37
15:06:12	3677.0000	1381.0000	64
15:06:12	3691.0000	1384.0000	83
15:06:12	3693.0000	1414.0000	0
15:06:12	3675.0000	1402.0000	20
15:06:12	3699.0000	1393.0000	65
15:06:12	3650.0000	1387.0000	93
15:06:12	3690.0000	1416.0000	0
15:06:12	3691.0000	1403.0000	33
15:06:12	3693.0000	1384.0000	65
15:06:12	3698.0000	1409.0000	0
15:06:12	3691.0000	1393.0000	35
15:06:12	3689.0000	1379.0000	64
15:06:12	3692.0000	1379.0000	87
15:06:12	3696.0000	1417.0000	0
15:06:12	3687.0000	1396.0000	39
15:06:12	3694.0000	1383.0000	69
15:06:12	3695.0000	1376.0000	96
15:06:12	3702.0000	1418.0000	0
15:06:12	3691.0000	1404.0000	34
15:06:12	3693.0000	1390.0000	66
15:06:12	3693.0000	1406.0000	0
15:06:12	3694.0000	1389.0000	36
15:06:12	3690.0000	1385.0000	66
15:06:12	3693.0000	1376.0000	90
15:06:12	3699.0000	1414.0000	0
15:06:12	3695.0000	1396.0000	33
15:06:12	3693.0000	1387.0000	70
15:06:12	3696.0000	1378.0000	93
15:06:12	3698.0000	1419.0000	0
15:06:12	3694.0000	1401.0000	41
15:06:12	3697.0000	1390.0000	66
15:06:12	3696.0000	1408.0000	0
15:06:12	3690.0000	1391.0000	35
15:06:12	3695.0000	1379.0000	68
15:06:12	3696.0000	1371.0000	93
15:06:12	3696.0000	1415.0000	0
15:06:12	3691.0000	1399.0000	36
15:06:12	3697.0000	1386.0000	66
15:06:12	3692.0000	1382.0000	92
15:06:12	3696.0000	1415.0000	0
15:06:12	3696.0000	1406.0000	33
15:06:12	3699.0000	1398.0000	55
15:06:12	3696.0000	1403.0000	0
15:06:12	3671.0000	1403.0000	18
15:06:12	3680.0000	1387.0000	64
15:06:12	3691.0000	1383.0000	86
15:06:12	3697.0000	1417.0000	0
15:06:12	3696.0000	1400.0000	37
15:06:12	3691.0000	1389.0000	65
15:06:12	3696.0000	1380.0000	86
15:06:12	3699.0000	1419.0000	0
15:06:12	3693.0000	1404.0000	35
15:06:12	3695.0000	1394.0000	66
15:06:12	3701.0000	1407.0000	0
15:06:12	3693.0000	1392.0000	32
15:06:12	3696.0000	1385.0000	64
15:06:12	3697.0000	1381.0000	86
15:06:12	3696.0000	1414.0000	0
15:06:12	3689.0000	1402.0000	32
15:06:12	3694.0000	1392.0000	64
15:06:12	3696.0000	1403.0000	0
15:06:12	3697.0000	1388.0000	37
15:06:12	3694.0000	1378.0000	73
15:06:12	3694.0000	1369.0000	95
15:06:12	3701.0000	1415.0000	0
15:06:12	3691.0000	1397.0000	39
15:06:12	3696.0000	1395.0000	67
15:06:12	3692.0000	1385.0000	97
15:06:12	3699.0000	1422.0000	0
15:06:12	3691.0000	1406.0000	29
15:06:12	3695.0000	1392.0000	64
15:06:12	3696.0000	1403.0000	0
15:06:12	3691.0000	1395.0000	32
15:06:12	3696.0000	1388.0000	64
15:06:12	3690.0000	1380.0000	91
15:06:12	3698.0000	1418.0000	0
15:06:13	3687.0000	1392.0000	42
15:06:13	3699.0000	1383.0000	71
15:06:13	3696.0000	1381.0000	96
15:06:13	3707.0000	1421.0000	0
15:06:13	3696.0000	1404.0000	33
15:06:13	3696.0000	1394.0000	65
15:06:13	3697.0000	1408.0000	0
15:06:13	3698.0000	1392.0000	33
15:06:13	3694.0000	1385.0000	65
15:06:13	3693.0000	1378.0000	87
15:06:13	3697.0000	1418.0000	0
15:06:13	3696.0000	1402.0000	35
15:06:13	3695.0000	1388.0000	66
15:06:13	3696.0000	1383.0000	88
15:06:13	3701.0000	1422.0000	0
15:06:13	3696.0000	1405.0000	38
15:06:13	3695.0000	1390.0000	67
15:06:13	3698.0000	1408.0000	0
15:06:13	3696.0000	1391.0000	37
15:06:13	3683.0000	1384.0000	69
15:06:13	3691.0000	1374.0000	92
15:06:13	3700.0000	1411.0000	0
15:06:13	3691.0000	1394.0000	42
15:06:13	3689.0000	1383.0000	71
15:06:13	3696.0000	1380.0000	96
15:06:13	3696.0000	1414.0000	0
15:06:13	3719.0000	1403.0000	34
15:06:13	3690.0000	1392.0000	66
15:06:13	3707.0000	1410.0000	0
15:06:13	3696.0000	1387.0000	42
15:06:13	3693.0000	1378.0000	75
15:06:13	3712.0000	1373.0000	96
15:06:13	3690.0000	1410.0000	0
15:06:13	3689.0000	1392.0000	41
15:06:13	3698.0000	1384.0000	74
15:06:13	3673.0000	1378.0000	86
15:06:13	3697.0000	1421.0000	1
15:06:13	3699.0000	1407.0000	37
15:06:13	3696.0000	1388.0000	70
15:06:13	3696.0000	1408.0000	0
15:06:13	3692.0000	1393.0000	35
15:06:13	3693.0000	1389.0000	64
15:06:13	3695.0000	1381.0000	85
15:06:13	3697.0000	1409.0000	0
15:06:13	3699.0000	1399.0000	32
15:06:13	3692.0000	1383.0000	70
15:06:13	3694.0000	1380.0000	91
15:06:13	3698.0000	1424.0000	0
15:06:13	3697.0000	1397.0000	48
15:06:13	3697.0000	1392.0000	72
15:06:13	3697.0000	1408.0000	0
15:06:13	3699.0000	1393.0000	31
15:06:13	3696.0000	1386.0000	65
15:06:13	3694.0000	1380.0000	86
15:06:13	3707.0000	1414.0000	0
15:06:13	3695.0000	1398.0000	30
15:06:13	3689.0000	1385.0000	64
15:06:13	3693.0000	1384.0000	84
15:06:13	3700.0000	1421.0000	0
15:06:13	3696.0000	1405.0000	36
15:06:13	3690.0000	1386.0000	65
15:06:13	3721.0000	1419.0000	0
15:06:13	3693.0000	1391.0000	33
15:06:13	3690.0000	1374.0000	74
15:06:13	3696.0000	1380.0000	86
15:06:13	3703.0000	1419.0000	0
15:06:13	3690.0000	1399.0000	37
15:06:13	3694.0000	1386.0000	80
15:06:13	3694.0000	1376.0000	92
15:06:13	3708.0000	1424.0000	0
15:06:13	3713.0000	1406.0000	26
15:06:13	3696.0000	1392.0000	80
15:06:13	3706.0000	1392.0000	0
15:06:13	3710.0000	1398.0000	33
15:06:13	3711.0000	1385.0000	51
15:06:13	3694.0000	1382.0000	95
15:06:13	3719.0000	1415.0000	0
15:06:13	3715.0000	1407.0000	32
15:06:13	3710.0000	1396.0000	55
15:06:13	3678.0000	1375.0000	86
15:06:13	3701.0000	1421.0000	0
15:06:13	3712.0000	1410.0000	33
15:06:13	3693.0000	1398.0000	64
15:06:13	3716.0000	1407.0000	0
15:06:13	3693.0000	1393.0000	33
15:06:13	3711.0000	1386.0000	64
15:06:13	3696.0000	1379.0000	87
15:06:13	3718.0000	1411.0000	0
15:06:13	3695.0000	1404.0000	33
15:06:13	3718.0000	1394.0000	64
15:06:13	3698.0000	1408.0000	0
15:06:13	3712.0000	1407.0000	32
15:06:13	3694.0000	1389.0000	64
15:06:13	3696.0000	1382.0000	86
15:06:13	3699.0000	1415.0000	0
15:06:13	3713.0000	1406.0000	32
15:06:13	3694.0000	1393.0000	64
15:06:13	3713.0000	1389.0000	87
15:06:13	3698.0000	1421.0000	0
15:06:13	3714.0000	1407.0000	30
15:06:13	3690.0000	1392.0000	64
15:06:13	3694.0000	1398.0000	0
15:06:13	3691.0000	1389.0000	22
15:06:13	3697.0000	1384.0000	67
15:06:13	3696.0000	1377.0000	92
15:06:13	3690.0000	1407.0000	0
15:06:13	3677.0000	1402.0000	43
15:06:13	3707.0000	1391.0000	64
15:06:13	3695.0000	1382.0000	90
15:06:13	3703.0000	1418.0000	0
15:06:13	3696.0000	1402.0000	38
15:06:13	3715.0000	1388.0000	66
15:06:13	3702.0000	1408.0000	0
15:06:13	3696.0000	1392.0000	33
15:06:13	3695.0000	1389.0000	64
15:06:13	3713.0000	1383.0000	82
15:06:13	3703.0000	1417.0000	0
15:06:13	3690.0000	1402.0000	32
15:06:13	3693.0000	1384.0000	64
15:06:13	3707.0000	1387.0000	83
15:06:13	3698.0000	1421.0000	0
15:06:13	3693.0000	1403.0000	35
15:06:13	3696.0000	1398.0000	64
15:06:13	3696.0000	1407.0000	0
15:06:13	3692.0000	1396.0000	34
15:06:13	3705.0000	1389.0000	64
15:06:13	3703.0000	1382.0000	84
15:06:13	3713.0000	1414.0000	0
15:06:13	3695.0000	1402.0000	35
15:06:13	3696.0000	1385.0000	67
15:06:13	3695.0000	1385.0000	87
15:06:13	3698.0000	1419.0000	0
15:06:13	3696.0000	1405.0000	33
15:06:13	3697.0000	1389.0000	66
15:06:13	3691.0000	1408.0000	0
15:06:13	3696.0000	1396.0000	39
15:06:13	3685.0000	1386.0000	61
15:06:13	3687.0000	1367.0000	94
15:06:13	3698.0000	1417.0000	0
15:06:13	3703.0000	1392.0000	39
15:06:13	3694.0000	1382.0000	71
15:06:13	3687.0000	1371.0000	96
15:06:13	3699.0000	1421.0000	0
15:06:13	3696.0000	1402.0000	36
15:06:13	3690.0000	1388.0000	71
15:06:13	3702.0000	1413.0000	0
15:06:13	3693.0000	1392.0000	37
15:06:13	3699.0000	1380.0000	70
15:06:13	3677.0000	1388.0000	80
15:06:13	3696.0000	1414.0000	0
15:06:13	3695.0000	1400.0000	34
15:06:13	3709.0000	1387.0000	64
15:06:13	3696.0000	1385.0000	86
15:06:13	3697.0000	1421.0000	0
15:06:13	3705.0000	1403.0000	37
15:06:13	3711.0000	1396.0000	64
15:06:13	3690.0000	1407.0000	0
15:06:13	3696.0000	1397.0000	34
15:06:13	3696.0000	1386.0000	66
15:06:13	3711.0000	1378.0000	92
15:06:13	3699.0000	1417.0000	0
15:06:13	3698.0000	1402.0000	33
15:06:13	3695.0000	1388.0000	64
15:06:13	3689.0000	1384.0000	86
15:06:13	3696.0000	1423.0000	0
15:06:13	3696.0000	1406.0000	32
15:06:13	3691.0000	1395.0000	64
15:06:13	3709.0000	1411.0000	0
15:06:13	3696.0000	1397.0000	32
15:06:13	3696.0000	1387.0000	64
15:06:13	3697.0000	1383.0000	84
15:06:13	3697.0000	1416.0000	0
15:06:13	3696.0000	1406.0000	34
15:06:13	3695.0000	1395.0000	63
15:06:13	3694.0000	1392.0000	86
15:06:13	3703.0000	1423.0000	0
15:06:13	3696.0000	1405.0000	37
15:06:13	3702.0000	1386.0000	69
15:06:13	3703.0000	1411.0000	0
15:06:13	3696.0000	1400.0000	35
15:06:13	3715.0000	1388.0000	68
15:06:13	3696.0000	1382.0000	85
15:06:13	3697.0000	1419.0000	0
15:06:13	3695.0000	1399.0000	37
15:06:13	3695.0000	1387.0000	66
15:06:13	3696.0000	1386.0000	90
15:06:13	3696.0000	1415.0000	0
15:06:13	3695.0000	1403.0000	35
15:06:13	3696.0000	1386.0000	66
15:06:13	3703.0000	1405.0000	0
15:06:13	3696.0000	1395.0000	35
15:06:13	3693.0000	1391.0000	66
15:06:14	3698.0000	1383.0000	87
15:06:14	3703.0000	1414.0000	0
15:06:14	3696.0000	1400.0000	37
15:06:14	3695.0000	1386.0000	65
15:06:14	3696.0000	1386.0000	91
15:06:14	3705.0000	1416.0000	0
15:06:14	3699.0000	1405.0000	35
15:06:14	3696.0000	1391.0000	66
15:06:14	3703.0000	1408.0000	0
15:06:14	3696.0000	1400.0000	33
15:06:14	3696.0000	1387.0000	64
15:06:14	3696.0000	1387.0000	85
15:06:14	3698.0000	1418.0000	0
15:06:14	3697.0000	1406.0000	42
15:06:14	3686.0000	1392.0000	54
15:06:14	3696.0000	1411.0000	0
15:06:14	3696.0000	1395.0000	38
15:06:14	3694.0000	1388.0000	64
15:06:14	3695.0000	1386.0000	86
15:06:14	3698.0000	1420.0000	0
15:06:14	3697.0000	1406.0000	45
15:06:14	3694.0000	1388.0000	63
15:06:14	3694.0000	1383.0000	89
15:06:14	3701.0000	1421.0000	0
15:06:14	3696.0000	1406.0000	45
15:06:14	3695.0000	1392.0000	64
15:06:14	3697.0000	1423.0000	0
15:06:14	3693.0000	1396.0000	32
15:06:14	3696.0000	1384.0000	73
15:06:14	3695.0000	1386.0000	85
15:06:14	3716.0000	1426.0000	0
15:06:14	3694.0000	1403.0000	36
15:06:14	3692.0000	1379.0000	76
15:06:14	3691.0000	1385.0000	85
15:06:14	3719.0000	1429.0000	0
15:06:14	3695.0000	1409.0000	32
15:06:14	3696.0000	1382.0000	74
15:06:14	3703.0000	1411.0000	0
15:06:14	3696.0000	1395.0000	43
15:06:14	3709.0000	1390.0000	64
15:06:14	3687.0000	1382.0000	99
15:06:14	3698.0000	1414.0000	0
15:06:14	3693.0000	1396.0000	46
15:06:14	3696.0000	1382.0000	74
15:06:14	3696.0000	1384.0000	105
15:06:14	3701.0000	1421.0000	0
15:06:14	3695.0000	1407.0000	48
15:06:14	3696.0000	1387.0000	72
15:06:14	3710.0000	1414.0000	0
15:06:14	3710.0000	1413.0000	22
15:06:14	3675.0000	1386.0000	66
15:06:14	3700.0000	1378.0000	91
15:06:14	3721.0000	1424.0000	0
15:06:14	3701.0000	1399.0000	36
15:06:14	3695.0000	1392.0000	74
15:06:14	3697.0000	1379.0000	94
15:06:14	3717.0000	1424.0000	0
15:06:14	3696.0000	1407.0000	34
15:06:14	3696.0000	1394.0000	70
15:06:14	3702.0000	1410.0000	0
15:06:14	3712.0000	1399.0000	36
15:06:14	3696.0000	1384.0000	64
15:06:14	3696.0000	1383.0000	93
15:06:14	3698.0000	1416.0000	0
15:06:14	3716.0000	1413.0000	30
15:06:14	3696.0000	1392.0000	63
15:06:14	3693.0000	1387.0000	98
15:06:14	3702.0000	1424.0000	0
15:06:14	3712.0000	1419.0000	33
15:06:14	3693.0000	1400.0000	64
15:06:14	3695.0000	1408.0000	0
15:06:14	3713.0000	1403.0000	19
15:06:14	3711.0000	1402.0000	64
15:06:14	3717.0000	1386.0000	78
15:06:14	3693.0000	1417.0000	0
15:06:14	3696.0000	1402.0000	38
15:06:14	3712.0000	1398.0000	62
15:06:14	3698.0000	1389.0000	86
15:06:14	3697.0000	1424.0000	0
15:06:14	3696.0000	1410.0000	34
15:06:14	3713.0000	1400.0000	64
15:06:14	3702.0000	1410.0000	0
15:06:14	3696.0000	1389.0000	35
15:06:14	3696.0000	1386.0000	65
15:06:14	3709.0000	1392.0000	85
15:06:14	3685.0000	1408.0000	0
15:06:14	3697.0000	1403.0000	33
15:06:14	3694.0000	1393.0000	64
15:06:14	3710.0000	1388.0000	83
15:06:14	3699.0000	1420.0000	0
15:06:14	3699.0000	1401.0000	41
15:06:14	3699.0000	1389.0000	72
15:06:14	3695.0000	1409.0000	0
15:06:14	3702.0000	1391.0000	38
15:06:14	3718.0000	1389.0000	66
15:06:14	3696.0000	1379.0000	94
15:06:14	3715.0000	1425.0000	0
15:06:14	3702.0000	1400.0000	42
15:06:14	3696.0000	1383.0000	80
15:06:14	3703.0000	1408.0000	0
15:06:14	3691.0000	1387.0000	48
15:06:14	3703.0000	1383.0000	73
15:06:14	3698.0000	1372.0000	95
15:06:14	3696.0000	1419.0000	0
15:06:14	3699.0000	1403.0000	42
15:06:14	3705.0000	1387.0000	74
15:06:14	781.0000	602.0000	0
15:06:14	764.0000	567.0000	0
15:06:14	762.0000	538.0000	0
15:06:14	755.0000	506.0000	0
15:06:14	623.0000	499.0000	0
15:06:14	618.0000	475.0000	0
15:06:14	615.0000	448.0000	0
15:06:14	511.0000	474.0000	0
15:06:14	506.0000	439.0000	0
15:06:14	508.0000	412.0000	0
15:06:14	497.0000	389.0000	0
15:06:14	569.0000	448.0000	0
15:06:14	576.0000	418.0000	0
15:06:14	575.0000	399.0000	0
15:06:14	563.0000	378.0000	0
15:06:14	749.0000	449.0000	0
15:06:14	750.0000	428.0000	0
15:06:14	751.0000	414.0000	0
15:06:14	750.0000	400.0000	0
15:06:14	644.0000	454.0000	0
15:06:14	640.0000	430.0000	0
15:06:14	640.0000	406.0000	0
15:06:14	634.0000	389.0000	0
15:06:14	550.0000	446.0000	0
15:06:14	557.0000	417.0000	0
15:06:14	557.0000	402.0000	0
15:06:14	546.0000	374.0000	0
15:06:14	451.0000	433.0000	0
15:06:14	463.0000	400.0000	0
15:06:14	462.0000	390.0000	0
15:06:14	449.0000	357.0000	0
15:06:14	379.0000	423.0000	0
15:06:14	387.0000	384.0000	0
15:06:14	391.0000	369.0000	0
15:06:14	393.0000	345.0000	0
15:06:14	343.0000	423.0000	0
15:06:14	337.0000	373.0000	0
15:06:14	336.0000	346.0000	0
15:06:14	336.0000	327.0000	0
15:06:14	299.0000	414.0000	0
15:06:14	293.0000	368.0000	0
15:06:14	290.0000	348.0000	0
15:06:14	259.0000	411.0000	0
15:06:14	266.0000	384.0000	0
15:06:14	257.0000	341.0000	0
15:06:14	256.0000	317.0000	0
15:06:14	234.0000	398.0000	0
15:06:14	234.0000	359.0000	0
15:06:14	234.0000	331.0000	0
15:06:14	234.0000	305.0000	0
15:06:14	218.0000	394.0000	0
15:06:14	214.0000	356.0000	0
15:06:14	212.0000	325.0000	0
15:06:14	213.0000	301.0000	0
15:06:14	202.0000	389.0000	0
15:06:14	201.0000	348.0000	0
15:06:14	199.0000	321.0000	0
15:06:14	205.0000	298.0000	0
15:06:14	193.0000	384.0000	0
15:06:14	192.0000	346.0000	0
15:06:14	190.0000	320.0000	0
15:06:14	192.0000	290.0000	0
15:06:14	181.0000	381.0000	0
15:06:14	180.0000	347.0000	0
15:06:14	181.0000	315.0000	0
15:06:14	182.0000	291.0000	0
15:06:14	177.0000	383.0000	0
15:06:14	176.0000	343.0000	0
15:06:14	177.0000	317.0000	0
15:06:14	177.0000	289.0000	0
15:06:14	175.0000	382.0000	0
15:06:14	175.0000	332.0000	0
15:06:14	176.0000	314.0000	0
15:06:14	168.0000	391.0000	0
15:06:14	168.0000	353.0000	0
15:06:14	167.0000	321.0000	0
15:06:14	169.0000	293.0000	0
15:06:14	165.0000	384.0000	0
15:06:14	163.0000	340.0000	0
15:06:14	166.0000	312.0000	0
15:06:14	159.0000	288.0000	0
15:06:14	159.0000	381.0000	0
15:06:14	158.0000	340.0000	0
15:06:14	158.0000	309.0000	0
15:06:14	156.0000	286.0000	0
15:06:14	155.0000	368.0000	0
15:06:14	157.0000	342.0000	0
15:06:14	153.0000	302.0000	0
15:06:14	157.0000	286.0000	0
15:06:14	155.0000	377.0000	0
15:06:14	151.0000	338.0000	0
15:06:14	151.0000	307.0000	0
15:06:14	153.0000	286.0000	0
15:06:14	154.0000	378.0000	0
15:06:14	151.0000	340.0000	0
15:06:14	151.0000	306.0000	0
15:06:15	149.0000	287.0000	0
15:06:15	150.0000	374.0000	0
15:06:15	160.0000	337.0000	0
15:06:15	147.0000	307.0000	0
15:06:15	144.0000	278.0000	0
15:06:15	155.0000	378.0000	0
15:06:15	159.0000	339.0000	0
15:06:15	155.0000	304.0000	0
15:06:15	149.0000	279.0000	0
15:06:15	150.0000	378.0000	0
15:06:15	154.0000	338.0000	0
15:06:15	150.0000	307.0000	0
15:06:15	149.0000	279.0000	0
15:06:15	150.0000	368.0000	0
15:06:15	159.0000	337.0000	0
15:06:15	148.0000	313.0000	0
15:06:15	153.0000	388.0000	0
15:06:15	149.0000	347.0000	0
15:06:15	149.0000	320.0000	0
15:06:15	146.0000	288.0000	0
15:06:15	150.0000	381.0000	0
15:06:15	149.0000	340.0000	0
15:06:15	146.0000	310.0000	0
15:06:15	145.0000	282.0000	0
15:06:15	147.0000	379.0000	0
15:06:15	149.0000	336.0000	0
15:06:15	156.0000	307.0000	0
15:06:15	147.0000	281.0000	0
15:06:15	151.0000	378.0000	0
15:06:15	150.0000	337.0000	0
15:06:15	155.0000	311.0000	0
15:06:15	149.0000	289.0000	0
15:06:15	151.0000	379.0000	0
15:06:15	152.0000	336.0000	0
15:06:15	156.0000	311.0000	0
15:06:15	151.0000	281.0000	0
15:06:15	150.0000	378.0000	0
15:06:15	151.0000	336.0000	0
15:06:15	151.0000	306.0000	0
15:06:15	150.0000	280.0000	0
15:06:15	151.0000	378.0000	0
15:06:15	151.0000	336.0000	0
15:06:15	153.0000	313.0000	0
15:06:15	149.0000	283.0000	0
15:06:15	150.0000	378.0000	0
15:06:15	149.0000	336.0000	0
15:06:15	147.0000	305.0000	0
15:06:15	145.0000	272.0000	0
15:06:15	148.0000	377.0000	0
15:06:15	153.0000	337.0000	0
15:06:15	148.0000	305.0000	0
15:06:15	152.0000	387.0000	0
15:06:15	150.0000	347.0000	0
15:06:15	151.0000	320.0000	0
15:06:15	154.0000	288.0000	0
15:06:15	156.0000	379.0000	0
15:06:15	157.0000	338.0000	0
15:06:15	155.0000	309.0000	0
15:06:15	167.0000	293.0000	0
15:06:15	161.0000	381.0000	0
15:06:15	156.0000	337.0000	0
15:06:15	161.0000	311.0000	0
15:06:15	170.0000	294.0000	0
15:06:15	168.0000	377.0000	0
15:06:15	163.0000	340.0000	0
15:06:15	169.0000	303.0000	0
15:06:15	170.0000	298.0000	0
15:06:15	167.0000	381.0000	0
15:06:15	162.0000	339.0000	0
15:06:15	171.0000	302.0000	0
15:06:15	173.0000	296.0000	0
15:06:15	171.0000	382.0000	0
15:06:15	163.0000	342.0000	0
15:06:15	167.0000	309.0000	0
15:06:15	177.0000	297.0000	0
15:06:15	176.0000	380.0000	0
15:06:15	168.0000	338.0000	0
15:06:15	173.0000	310.0000	0
15:06:15	176.0000	295.0000	0
15:06:15	173.0000	381.0000	0
15:06:15	170.0000	339.0000	0
15:06:15	172.0000	314.0000	0
15:06:15	176.0000	298.0000	0
15:06:15	157.0000	368.0000	0
15:06:15	176.0000	343.0000	0
15:06:15	176.0000	314.0000	0
15:06:15	182.0000	295.0000	0
15:06:15	178.0000	382.0000	0
15:06:15	179.0000	347.0000	0
15:06:15	176.0000	314.0000	0
15:06:15	175.0000	390.0000	0
15:06:15	176.0000	351.0000	0
15:06:15	178.0000	325.0000	0
15:06:15	176.0000	294.0000	0
15:06:15	174.0000	380.0000	0
15:06:15	176.0000	343.0000	0
15:06:15	178.0000	318.0000	0
15:06:15	176.0000	288.0000	0
15:06:15	177.0000	383.0000	0
15:06:15	178.0000	345.0000	0
15:06:15	179.0000	313.0000	0
15:06:15	177.0000	293.0000	0
15:06:15	179.0000	379.0000	0
15:06:15	182.0000	345.0000	0
15:06:15	183.0000	316.0000	0
15:06:15	182.0000	288.0000	0
15:06:15	180.0000	381.0000	0
15:06:15	181.0000	341.0000	0
15:06:15	180.0000	314.0000	0
15:06:15	178.0000	288.0000	0
15:06:15	179.0000	383.0000	0
15:06:15	181.0000	343.0000	0
15:06:15	176.0000	316.0000	0
15:06:15	180.0000	288.0000	0
15:06:15	181.0000	385.0000	0
15:06:15	183.0000	345.0000	0
15:06:15	185.0000	314.0000	0
15:06:15	183.0000	288.0000	0
15:06:15	182.0000	384.0000	0
15:06:15	187.0000	342.0000	0
15:06:15	186.0000	315.0000	0
15:06:15	187.0000	301.0000	0
15:06:15	183.0000	383.0000	0
15:06:15	175.0000	336.0000	0
15:06:15	175.0000	313.0000	0
15:06:15	186.0000	394.0000	0
15:06:15	179.0000	351.0000	0
15:06:15	182.0000	321.0000	0
15:06:15	187.0000	298.0000	0
15:06:15	187.0000	384.0000	0
15:06:15	192.0000	344.0000	0
15:06:15	188.0000	315.0000	0
15:06:15	199.0000	301.0000	0
15:06:15	182.0000	373.0000	0
15:06:15	177.0000	349.0000	0
15:06:15	185.0000	317.0000	0
15:06:15	190.0000	303.0000	0
15:06:15	183.0000	383.0000	0
15:06:15	183.0000	342.0000	0
15:06:15	184.0000	315.0000	0
15:06:15	189.0000	300.0000	0
15:06:15	179.0000	383.0000	0
15:06:15	182.0000	352.0000	0
15:06:15	186.0000	314.0000	0
15:06:15	191.0000	299.0000	0
15:06:15	182.0000	382.0000	0
15:06:15	175.0000	342.0000	0
15:06:15	179.0000	314.0000	0
15:06:15	189.0000	299.0000	0
15:06:15	176.0000	381.0000	0
15:06:15	167.0000	341.0000	0
15:06:15	176.0000	315.0000	0
15:06:15	177.0000	297.0000	0
15:06:15	174.0000	383.0000	0
15:06:15	166.0000	342.0000	0
15:06:15	173.0000	314.0000	0
15:06:15	176.0000	300.0000	0
15:06:15	178.0000	370.0000	0
15:06:15	181.0000	343.0000	0
15:06:15	172.0000	304.0000	0
15:06:15	191.0000	291.0000	0
15:06:15	190.0000	384.0000	0
15:06:15	185.0000	343.0000	0
15:06:15	190.0000	315.0000	0
15:06:15	192.0000	395.0000	0
15:06:15	192.0000	355.0000	0
15:06:15	182.0000	323.0000	0
15:06:15	192.0000	298.0000	0
15:06:15	186.0000	384.0000	0
15:06:15	183.0000	340.0000	0
15:06:15	187.0000	312.0000	0
15:06:15	186.0000	289.0000	0
15:06:15	186.0000	384.0000	0
15:06:15	190.0000	347.0000	0
15:06:15	182.0000	315.0000	0
15:06:15	183.0000	288.0000	0
15:06:15	182.0000	381.0000	0
15:06:15	181.0000	343.0000	0
15:06:15	182.0000	318.0000	0
15:06:15	186.0000	299.0000	0
15:06:15	189.0000	381.0000	0
15:06:15	189.0000	341.0000	0
15:06:15	189.0000	313.0000	0
15:06:15	187.0000	287.0000	0
15:06:15	186.0000	385.0000	0
15:06:15	187.0000	348.0000	0
15:06:15	191.0000	315.0000	0
15:06:15	184.0000	288.0000	0
15:06:15	186.0000	382.0000	0
15:06:15	186.0000	342.0000	0
15:06:15	180.0000	313.0000	0
15:06:15	183.0000	288.0000	0
15:06:15	185.0000	383.0000	0
15:06:15	183.0000	345.0000	0
15:06:15	186.0000	316.0000	0
15:06:15	185.0000	291.0000	0
15:06:15	180.0000	371.0000	0
15:06:15	186.0000	341.0000	0
15:06:15	182.0000	314.0000	0
15:06:15	162.0000	382.0000	0
15:06:15	191.0000	361.0000	0
15:06:15	187.0000	329.0000	0
15:06:15	207.0000	300.0000	0
15:06:15	183.0000	386.0000	0
15:06:15	181.0000	343.0000	0
15:06:15	179.0000	317.0000	0
15:06:15	185.0000	293.0000	0
15:06:15	177.0000	370.0000	0
15:06:15	192.0000	342.0000	0
15:06:15	190.0000	323.0000	0
15:06:15	195.0000	297.0000	0
15:06:16	192.0000	368.0000	0
15:06:16	192.0000	343.0000	0
15:06:16	196.0000	320.0000	0
15:06:16	186.0000	291.0000	0
15:06:16	190.0000	370.0000	0
15:06:16	187.0000	332.0000	0
15:06:16	190.0000	318.0000	0
15:06:16	188.0000	288.0000	0
15:06:16	187.0000	379.0000	0
15:06:16	187.0000	342.0000	0
15:06:16	186.0000	313.0000	0
15:06:16	183.0000	288.0000	0
15:06:16	186.0000	382.0000	0
15:06:16	189.0000	347.0000	0
15:06:16	186.0000	314.0000	0
15:06:16	183.0000	289.0000	0
15:06:16	181.0000	382.0000	0
15:06:16	186.0000	346.0000	0
15:06:16	182.0000	316.0000	0
15:06:16	182.0000	289.0000	0
15:06:16	177.0000	383.0000	0
15:06:16	183.0000	341.0000	0
15:06:16	180.0000	314.0000	0
15:06:16	189.0000	391.0000	0
15:06:16	189.0000	353.0000	0
15:06:16	183.0000	321.0000	0
15:06:16	189.0000	295.0000	0
15:06:16	186.0000	382.0000	0
15:06:16	187.0000	343.0000	0
15:06:16	184.0000	316.0000	0
15:06:16	185.0000	293.0000	0
15:06:16	179.0000	379.0000	0
15:06:16	185.0000	342.0000	0
15:06:16	178.0000	315.0000	0
15:06:16	182.0000	291.0000	0
15:06:16	176.0000	376.0000	0
15:06:16	181.0000	343.0000	0
15:06:16	184.0000	314.0000	0
15:06:16	180.0000	288.0000	0
15:06:16	176.0000	382.0000	0
15:06:16	183.0000	345.0000	0
15:06:16	181.0000	312.0000	0
15:06:16	186.0000	292.0000	0
15:06:16	181.0000	382.0000	0
15:06:16	187.0000	343.0000	0
15:06:16	182.0000	314.0000	0
15:06:16	181.0000	289.0000	0
15:06:16	179.0000	384.0000	0
15:06:16	183.0000	342.0000	0
15:06:16	179.0000	315.0000	0
15:06:16	182.0000	289.0000	0
15:06:16	183.0000	386.0000	0
15:06:16	183.0000	345.0000	0
15:06:16	182.0000	315.0000	0
15:06:16	184.0000	289.0000	0
15:06:16	179.0000	384.0000	0
15:06:16	182.0000	336.0000	0
15:06:16	177.0000	315.0000	0
15:06:16	182.0000	291.0000	0
15:06:16	178.0000	384.0000	0
15:06:16	182.0000	346.0000	0
15:06:16	181.0000	315.0000	0
15:06:16	182.0000	393.0000	0
15:06:16	181.0000	355.0000	0
15:06:16	177.0000	320.0000	0
15:06:16	179.0000	294.0000	0
15:06:16	179.0000	390.0000	0
15:06:16	176.0000	336.0000	0
15:06:16	179.0000	319.0000	0
15:06:16	176.0000	290.0000	0
15:06:16	185.0000	389.0000	0
15:06:16	180.0000	338.0000	0
15:06:16	179.0000	314.0000	0
15:06:16	180.0000	289.0000	0
15:06:16	188.0000	388.0000	0
15:06:16	181.0000	337.0000	0
15:06:16	181.0000	311.0000	0
15:06:16	182.0000	287.0000	0
15:06:16	189.0000	380.0000	0
15:06:16	183.0000	341.0000	0
15:06:16	187.0000	313.0000	0
15:06:16	183.0000	288.0000	0
15:06:16	181.0000	382.0000	0
15:06:16	181.0000	342.0000	0
15:06:16	181.0000	311.0000	0
15:06:16	183.0000	289.0000	0
15:06:16	181.0000	384.0000	0
15:06:16	181.0000	342.0000	0
15:06:16	181.0000	313.0000	0
15:06:16	185.0000	290.0000	0
15:06:16	181.0000	383.0000	0
15:06:16	180.0000	343.0000	0
15:06:16	183.0000	315.0000	0
15:06:16	184.0000	291.0000	0
15:06:16	182.0000	384.0000	0
15:06:16	179.0000	344.0000	0
15:06:16	183.0000	313.0000	0
15:06:16	180.0000	290.0000	0
15:06:16	179.0000	384.0000	0
15:06:16	190.0000	343.0000	0
15:06:16	179.0000	314.0000	0
15:06:16	179.0000	383.0000	0
15:06:16	181.0000	354.0000	0
15:06:16	182.0000	321.0000	0
15:06:16	182.0000	295.0000	0
15:06:16	183.0000	392.0000	0
15:06:16	181.0000	347.0000	0
15:06:16	179.0000	313.0000	0
15:06:16	180.0000	289.0000	0
15:06:16	182.0000	391.0000	0
15:06:16	180.0000	345.0000	0
15:06:16	181.0000	316.0000	0
15:06:16	182.0000	290.0000	0
15:06:16	182.0000	385.0000	0
15:06:16	182.0000	341.0000	0
15:06:16	182.0000	314.0000	0
15:06:16	175.0000	286.0000	0
15:06:16	183.0000	393.0000	0
15:06:16	183.0000	343.0000	0
15:06:16	184.0000	316.0000	0
15:06:16	182.0000	290.0000	0
15:06:16	183.0000	385.0000	0
15:06:16	183.0000	342.0000	0
15:06:16	186.0000	311.0000	0
15:06:16	185.0000	291.0000	0
15:06:16	182.0000	390.0000	0
15:06:16	181.0000	342.0000	0
15:06:16	182.0000	314.0000	0
15:06:16	182.0000	288.0000	0
15:06:16	198.0000	386.0000	0
15:06:16	177.0000	347.0000	0
15:06:16	183.0000	314.0000	0
15:06:16	183.0000	291.0000	0
15:06:16	190.0000	385.0000	0
15:06:16	178.0000	340.0000	0
15:06:16	183.0000	310.0000	0
15:06:16	182.0000	288.0000	0
15:06:16	190.0000	392.0000	0
15:06:16	178.0000	341.0000	0
15:06:16	182.0000	310.0000	0
15:06:16	182.0000	393.0000	0
15:06:16	183.0000	362.0000	0
15:06:16	188.0000	320.0000	0
15:06:16	183.0000	295.0000	0
15:06:16	185.0000	384.0000	0
15:06:16	181.0000	343.0000	0
15:06:16	181.0000	318.0000	0
15:06:16	186.0000	288.0000	0
15:06:16	182.0000	382.0000	0
15:06:16	179.0000	343.0000	0
15:06:16	177.0000	315.0000	0
15:06:16	178.0000	290.0000	0
15:06:16	179.0000	390.0000	0
15:06:16	176.0000	340.0000	0
15:06:16	176.0000	313.0000	0
15:06:16	176.0000	288.0000	0
15:06:16	175.0000	384.0000	0
15:06:16	174.0000	339.0000	0
15:06:16	176.0000	314.0000	0
15:06:16	174.0000	286.0000	0
15:06:16	176.0000	383.0000	0
15:06:16	176.0000	342.0000	0
15:06:16	179.0000	314.0000	0
15:06:16	177.0000	289.0000	0
15:06:16	177.0000	382.0000	0
15:06:16	178.0000	342.0000	0
15:06:16	178.0000	313.0000	0
15:06:16	176.0000	288.0000	0
15:06:16	185.0000	383.0000	0
15:06:16	181.0000	343.0000	0
15:06:16	182.0000	317.0000	0
15:06:16	180.0000	288.0000	0
15:06:16	178.0000	380.0000	0
15:06:16	176.0000	342.0000	0
15:06:16	179.0000	311.0000	0
15:06:16	184.0000	397.0000	0
15:06:16	176.0000	363.0000	0
15:06:16	176.0000	311.0000	0
15:06:16	176.0000	294.0000	0
15:06:16	183.0000	390.0000	0
15:06:16	177.0000	353.0000	0
15:06:16	177.0000	311.0000	0
15:06:16	180.0000	288.0000	0
15:06:16	182.0000	379.0000	0
15:06:16	179.0000	339.0000	0
15:06:16	181.0000	310.0000	0
15:06:16	180.0000	286.0000	0
15:06:16	178.0000	386.0000	0
15:06:16	176.0000	339.0000	0
15:06:16	176.0000	311.0000	0
15:06:16	176.0000	285.0000	0
15:06:16	178.0000	390.0000	0
15:06:16	176.0000	339.0000	0
15:06:16	176.0000	310.0000	0
15:06:16	176.0000	287.0000	0
15:06:16	190.0000	385.0000	0
15:06:16	177.0000	340.0000	0
15:06:16	179.0000	310.0000	0
15:06:16	178.0000	288.0000	0
15:06:16	184.0000	393.0000	0
15:06:17	183.0000	340.0000	0
15:06:17	185.0000	316.0000	0
15:06:17	180.0000	289.0000	0
15:06:17	178.0000	394.0000	0
15:06:17	178.0000	341.0000	0
15:06:17	176.0000	304.0000	0
15:06:17	176.0000	288.0000	0
15:06:17	179.0000	391.0000	0
15:06:17	177.0000	343.0000	0
15:06:17	178.0000	314.0000	0
15:06:17	176.0000	288.0000	0
15:06:17	181.0000	391.0000	0
15:06:17	177.0000	341.0000	0
15:06:17	176.0000	314.0000	0
15:06:17	176.0000	390.0000	0
15:06:17	176.0000	352.0000	0
15:06:17	176.0000	319.0000	0
15:06:17	176.0000	293.0000	0
15:06:17	181.0000	384.0000	0
15:06:17	179.0000	344.0000	0
15:06:17	176.0000	317.0000	0
15:06:17	181.0000	289.0000	0
15:06:17	182.0000	383.0000	0
15:06:17	177.0000	341.0000	0
15:06:17	177.0000	316.0000	0
15:06:17	179.0000	284.0000	0
15:06:17	178.0000	382.0000	0
15:06:17	176.0000	341.0000	0
15:06:17	179.0000	312.0000	0
15:06:17	178.0000	286.0000	0
15:06:17	176.0000	381.0000	0
15:06:17	176.0000	343.0000	0
15:06:17	176.0000	314.0000	0
15:06:17	179.0000	289.0000	0
15:06:17	182.0000	384.0000	0
15:06:17	179.0000	345.0000	0
15:06:17	177.0000	316.0000	0
15:06:17	178.0000	287.0000	0
15:06:17	179.0000	384.0000	0
15:06:17	177.0000	342.0000	0
15:06:17	179.0000	314.0000	0
15:06:17	178.0000	290.0000	0
15:06:17	181.0000	391.0000	0
15:06:17	178.0000	339.0000	0
15:06:17	179.0000	314.0000	0
15:06:17	177.0000	286.0000	0
15:06:17	178.0000	382.0000	0
15:06:17	178.0000	345.0000	0
15:06:17	182.0000	313.0000	0
15:06:17	181.0000	289.0000	0
15:06:17	178.0000	384.0000	0
15:06:17	176.0000	345.0000	0
15:06:17	179.0000	314.0000	0
15:06:17	190.0000	402.0000	0
15:06:17	180.0000	365.0000	0
15:06:17	182.0000	310.0000	0
15:06:17	181.0000	298.0000	0
15:06:17	182.0000	389.0000	0
15:06:17	181.0000	353.0000	0
15:06:17	176.0000	311.0000	0
15:06:17	178.0000	288.0000	0
15:06:17	187.0000	394.0000	0
15:06:17	179.0000	343.0000	0
15:06:17	176.0000	309.0000	0
15:06:17	179.0000	288.0000	0
15:06:17	183.0000	389.0000	0
15:06:17	176.0000	340.0000	0
15:06:17	177.0000	318.0000	0
15:06:17	177.0000	288.0000	0
15:06:17	184.0000	390.0000	0
15:06:17	176.0000	341.0000	0
15:06:17	178.0000	309.0000	0
15:06:17	182.0000	284.0000	0
15:06:17	178.0000	390.0000	0
15:06:17	176.0000	338.0000	0
15:06:17	163.0000	318.0000	0
15:06:17	176.0000	286.0000	0
15:06:17	181.0000	390.0000	0
15:06:17	176.0000	346.0000	0
15:06:17	178.0000	316.0000	0
15:06:17	179.0000	290.0000	0
15:06:17	177.0000	374.0000	0
15:06:17	178.0000	341.0000	0
15:06:17	177.0000	309.0000	0
15:06:17	178.0000	288.0000	0
15:06:17	176.0000	379.0000	0
15:06:17	178.0000	345.0000	0
15:06:17	176.0000	312.0000	0
15:06:17	174.0000	393.0000	0
15:06:17	176.0000	353.0000	0
15:06:17	176.0000	320.0000	0
15:06:17	176.0000	291.0000	0
15:06:17	175.0000	385.0000	0
15:06:17	176.0000	343.0000	0
15:06:17	176.0000	315.0000	0
15:06:17	178.0000	292.0000	0
15:06:17	177.0000	381.0000	0
15:06:17	178.0000	337.0000	0
15:06:17	182.0000	320.0000	0
15:06:17	179.0000	288.0000	0
15:06:17	185.0000	384.0000	0
15:06:17	177.0000	333.0000	0
15:06:17	182.0000	316.0000	0
15:06:17	179.0000	283.0000	0
15:06:17	180.0000	383.0000	0
15:06:17	183.0000	347.0000	0
15:06:17	182.0000	317.0000	0
15:06:17	182.0000	293.0000	0
15:06:17	176.0000	383.0000	0
15:06:17	182.0000	350.0000	0
15:06:17	192.0000	330.0000	0
15:06:17	182.0000	292.0000	0
15:06:17	178.0000	394.0000	0
15:06:17	176.0000	347.0000	0
15:06:17	178.0000	313.0000	0
15:06:17	178.0000	391.0000	0
15:06:17	181.0000	358.0000	0
15:06:17	182.0000	325.0000	0
15:06:17	180.0000	299.0000	0
15:06:17	179.0000	386.0000	0
15:06:17	181.0000	347.0000	0
15:06:17	183.0000	573.0000	0
15:06:17	187.0000	528.0000	0
15:06:17	181.0000	470.0000	0
15:06:17	177.0000	417.0000	0
15:06:17	177.0000	451.0000	0
15:06:17	176.0000	400.0000	0
15:06:17	176.0000	357.0000	0
15:06:17	177.0000	530.0000	0
15:06:17	178.0000	470.0000	0
15:06:17	182.0000	427.0000	0
15:06:17	181.0000	397.0000	0
15:06:17	187.0000	432.0000	0
15:06:17	181.0000	387.0000	0
15:06:17	182.0000	354.0000	0
15:06:17	181.0000	410.0000	0
15:06:17	180.0000	368.0000	0
15:06:17	175.0000	336.0000	0
15:06:17	185.0000	306.0000	0
15:06:17	181.0000	391.0000	0
15:06:17	180.0000	352.0000	0
15:06:17	176.0000	322.0000	0
15:06:17	178.0000	293.0000	0
15:06:17	176.0000	387.0000	0
15:06:17	176.0000	347.0000	0
15:06:17	176.0000	318.0000	0
15:06:17	176.0000	290.0000	0
15:06:17	176.0000	382.0000	0
15:06:17	176.0000	342.0000	0
15:06:17	173.0000	312.0000	0
15:06:17	174.0000	279.0000	0
15:06:17	179.0000	384.0000	0
15:06:17	175.0000	334.0000	0
15:06:17	188.0000	316.0000	0
15:06:17	176.0000	290.0000	0
15:06:17	179.0000	382.0000	0
15:06:17	176.0000	336.0000	0
15:06:17	178.0000	309.0000	0
15:06:17	178.0000	286.0000	0
15:06:17	176.0000	379.0000	0
15:06:17	176.0000	343.0000	0
15:06:17	181.0000	311.0000	0
15:06:17	176.0000	289.0000	0
15:06:17	177.0000	382.0000	0
15:06:17	177.0000	342.0000	0
15:06:17	178.0000	315.0000	0
15:06:17	176.0000	288.0000	0
15:06:17	176.0000	385.0000	0
15:06:17	176.0000	340.0000	0
15:06:17	176.0000	311.0000	0
15:06:17	177.0000	397.0000	0
15:06:17	176.0000	351.0000	0
15:06:17	178.0000	322.0000	0
15:06:17	183.0000	304.0000	0
15:06:17	161.0000	373.0000	0
15:06:17	187.0000	352.0000	0
15:06:17	179.0000	326.0000	0
15:06:17	177.0000	291.0000	0
15:06:17	161.0000	371.0000	0
15:06:17	179.0000	342.0000	0
15:06:17	177.0000	312.0000	0
15:06:17	186.0000	301.0000	0
15:06:17	177.0000	383.0000	0
15:06:17	178.0000	344.0000	0
15:06:17	176.0000	313.0000	0
15:06:17	183.0000	297.0000	0
15:06:17	178.0000	381.0000	0
15:06:17	182.0000	343.0000	0
15:06:17	176.0000	310.0000	0
15:06:17	190.0000	295.0000	0
15:06:17	176.0000	383.0000	0
15:06:17	177.0000	345.0000	0
15:06:17	176.0000	312.0000	0
15:06:17	190.0000	298.0000	0
15:06:17	178.0000	381.0000	0
15:06:17	179.0000	342.0000	0
15:06:18	178.0000	317.0000	0
15:06:18	182.0000	298.0000	0
15:06:18	176.0000	380.0000	0
15:06:18	179.0000	340.0000	0
15:06:18	176.0000	312.0000	0
15:06:18	186.0000	297.0000	0
15:06:18	176.0000	382.0000	0
15:06:18	183.0000	351.0000	0
15:06:18	176.0000	311.0000	0
15:06:18	176.0000	285.0000	0
15:06:18	176.0000	384.0000	0
15:06:18	183.0000	353.0000	0
15:06:18	176.0000	312.0000	0
15:06:18	177.0000	396.0000	0
15:06:18	178.0000	355.0000	0
15:06:18	185.0000	336.0000	0
15:06:18	183.0000	304.0000	0
15:06:18	174.0000	377.0000	0
15:06:18	181.0000	345.0000	0
15:06:18	181.0000	325.0000	0
15:06:18	179.0000	290.0000	0
15:06:18	174.0000	382.0000	0
15:06:18	178.0000	342.0000	0
15:06:18	184.0000	322.0000	0
15:06:18	178.0000	290.0000	0
15:06:18	170.0000	381.0000	0
15:06:18	179.0000	342.0000	0
15:06:18	181.0000	322.0000	0
15:06:18	176.0000	286.0000	0
15:06:18	176.0000	380.0000	0
15:06:18	180.0000	342.0000	0
15:06:18	182.0000	324.0000	0
15:06:18	177.0000	287.0000	0
15:06:18	176.0000	375.0000	0
15:06:18	182.0000	339.0000	0
15:06:18	183.0000	314.0000	0
15:06:18	184.0000	288.0000	0
15:06:18	177.0000	382.0000	0
15:06:18	178.0000	342.0000	0
15:06:18	179.0000	322.0000	0
15:06:18	177.0000	290.0000	0
15:06:18	176.0000	381.0000	0
15:06:18	179.0000	341.0000	0
15:06:18	178.0000	321.0000	0
15:06:18	178.0000	286.0000	0
15:06:18	174.0000	379.0000	0
15:06:18	176.0000	341.0000	0
15:06:18	176.0000	312.0000	0
15:06:18	176.0000	288.0000	0
15:06:18	177.0000	382.0000	0
15:06:18	176.0000	344.0000	0
15:06:18	179.0000	314.0000	0
15:06:18	176.0000	383.0000	0
15:06:18	175.0000	353.0000	0
15:06:18	166.0000	310.0000	0
15:06:18	181.0000	301.0000	0
15:06:18	182.0000	384.0000	0
15:06:18	179.0000	346.0000	0
15:06:18	182.0000	315.0000	0
15:06:18	187.0000	302.0000	0
15:06:18	183.0000	383.0000	0
15:06:18	179.0000	346.0000	0
15:06:18	183.0000	315.0000	0
15:06:18	189.0000	294.0000	0
15:06:18	183.0000	383.0000	0
15:06:18	178.0000	336.0000	0
15:06:18	183.0000	311.0000	0
15:06:18	185.0000	291.0000	0
15:06:18	185.0000	384.0000	0
15:06:18	183.0000	343.0000	0
15:06:18	182.0000	317.0000	0
15:06:18	185.0000	289.0000	0
15:06:18	176.0000	371.0000	0
15:06:18	178.0000	344.0000	0
15:06:18	182.0000	314.0000	0
15:06:18	187.0000	298.0000	0
15:06:18	181.0000	384.0000	0
15:06:18	185.0000	346.0000	0
15:06:18	181.0000	315.0000	0
15:06:18	178.0000	288.0000	0
15:06:18	178.0000	383.0000	0
15:06:18	182.0000	342.0000	0
15:06:18	184.0000	314.0000	0
15:06:18	183.0000	287.0000	0
15:06:18	181.0000	382.0000	0
15:06:18	180.0000	346.0000	0
15:06:18	178.0000	314.0000	0
15:06:18	189.0000	389.0000	0
15:06:18	186.0000	354.0000	0
15:06:18	195.0000	331.0000	0
15:06:18	193.0000	298.0000	0
15:06:18	176.0000	379.0000	0
15:06:18	183.0000	337.0000	0
15:06:18	188.0000	327.0000	0
15:06:18	188.0000	298.0000	0
15:06:18	177.0000	379.0000	0
15:06:18	176.0000	341.0000	0
15:06:18	176.0000	311.0000	0
15:06:18	176.0000	284.0000	0
15:06:18	176.0000	381.0000	0
15:06:18	176.0000	339.0000	0
15:06:18	176.0000	312.0000	0
15:06:18	176.0000	285.0000	0
15:06:18	188.0000	370.0000	0
15:06:18	187.0000	343.0000	0
15:06:18	187.0000	314.0000	0
15:06:18	191.0000	289.0000	0
15:06:18	194.0000	394.0000	0
15:06:18	193.0000	345.0000	0
15:06:18	194.0000	306.0000	0
15:06:18	196.0000	294.0000	0
15:06:18	195.0000	385.0000	0
15:06:18	195.0000	344.0000	0
15:06:18	195.0000	318.0000	0
15:06:18	194.0000	289.0000	0
15:06:18	193.0000	389.0000	0
15:06:18	195.0000	354.0000	0
15:06:18	198.0000	305.0000	0
15:06:18	198.0000	294.0000	0
15:06:18	194.0000	383.0000	0
15:06:18	194.0000	342.0000	0
15:06:18	197.0000	314.0000	0
15:06:18	198.0000	398.0000	0
15:06:18	198.0000	355.0000	0
15:06:18	197.0000	322.0000	0
15:06:18	198.0000	300.0000	0
15:06:18	194.0000	386.0000	0
15:06:18	193.0000	347.0000	0
15:06:18	192.0000	320.0000	0
15:06:18	192.0000	292.0000	0
15:06:18	195.0000	395.0000	0
15:06:18	191.0000	354.0000	0
15:06:18	190.0000	322.0000	0
15:06:18	193.0000	293.0000	0
15:06:18	193.0000	382.0000	0
15:06:18	193.0000	355.0000	0
15:06:18	192.0000	315.0000	0
15:06:18	197.0000	295.0000	0
15:06:18	193.0000	391.0000	0
15:06:18	188.0000	354.0000	0
15:06:18	194.0000	323.0000	0
15:06:18	193.0000	288.0000	0
15:06:18	189.0000	384.0000	0
15:06:18	187.0000	356.0000	0
15:06:18	189.0000	315.0000	0
15:06:18	185.0000	299.0000	0
15:06:18	192.0000	384.0000	0
15:06:18	193.0000	355.0000	0
15:06:18	194.0000	317.0000	0
15:06:18	193.0000	292.0000	0
15:06:18	192.0000	386.0000	0
15:06:18	194.0000	355.0000	0
15:06:18	198.0000	323.0000	0
15:06:18	194.0000	289.0000	0
15:06:18	195.0000	392.0000	0
15:06:18	193.0000	353.0000	0
15:06:18	193.0000	325.0000	0
15:06:18	205.0000	289.0000	0
15:06:18	192.0000	384.0000	0
15:06:18	193.0000	346.0000	0
15:06:18	193.0000	318.0000	0
15:06:18	189.0000	400.0000	0
15:06:18	189.0000	367.0000	0
15:06:18	188.0000	317.0000	0
15:06:18	192.0000	299.0000	0
15:06:18	203.0000	388.0000	0
15:06:18	193.0000	349.0000	0
15:06:18	198.0000	318.0000	0
15:06:18	195.0000	293.0000	0
15:06:18	197.0000	395.0000	0
15:06:18	191.0000	345.0000	0
15:06:18	192.0000	315.0000	0
15:06:18	192.0000	289.0000	0
15:06:18	199.0000	393.0000	0
15:06:18	192.0000	346.0000	0
15:06:18	193.0000	315.0000	0
15:06:18	193.0000	291.0000	0
15:06:18	201.0000	389.0000	0
15:06:18	197.0000	346.0000	0
15:06:18	196.0000	324.0000	0
15:06:18	195.0000	291.0000	0
15:06:18	198.0000	396.0000	0
15:06:18	194.0000	343.0000	0
15:06:18	192.0000	315.0000	0
15:06:18	196.0000	291.0000	0
15:06:18	202.0000	394.0000	0
15:06:18	195.0000	344.0000	0
15:06:18	195.0000	315.0000	0
15:06:18	194.0000	295.0000	0
15:06:18	197.0000	394.0000	0
15:06:18	192.0000	345.0000	0
15:06:18	194.0000	322.0000	0
15:06:18	195.0000	291.0000	0
15:06:18	193.0000	394.0000	0
15:06:18	192.0000	345.0000	0
15:06:18	193.0000	325.0000	0
15:06:18	191.0000	289.0000	0
15:06:18	195.0000	389.0000	0
15:06:18	193.0000	343.0000	0
15:06:18	192.0000	324.0000	0
15:06:18	197.0000	386.0000	0
15:06:18	203.0000	359.0000	0
15:06:18	195.0000	323.0000	0
15:06:18	195.0000	304.0000	0
15:06:18	194.0000	389.0000	0
15:06:18	202.0000	358.0000	0
15:06:18	195.0000	316.0000	0
15:06:18	196.0000	303.0000	0
15:06:18	194.0000	384.0000	0
15:06:18	201.0000	355.0000	0
15:06:18	193.0000	315.0000	0
15:06:18	198.0000	295.0000	0
15:06:18	194.0000	384.0000	0
15:06:18	193.0000	352.0000	0
15:06:18	194.0000	318.0000	0
15:06:18	194.0000	292.0000	0
15:06:18	193.0000	380.0000	0
15:06:19	192.0000	354.0000	0
15:06:19	193.0000	319.0000	0
15:06:19	192.0000	292.0000	0
15:06:19	194.0000	384.0000	0
15:06:19	192.0000	344.0000	0
15:06:19	195.0000	317.0000	0
15:06:19	192.0000	290.0000	0
15:06:19	194.0000	384.0000	0
15:06:19	194.0000	348.0000	0
15:06:19	195.0000	315.0000	0
15:06:19	195.0000	293.0000	0
15:06:19	194.0000	384.0000	0
15:06:19	193.0000	345.0000	0
15:06:19	195.0000	315.0000	0
15:06:19	194.0000	292.0000	0
15:06:19	196.0000	386.0000	0
15:06:19	194.0000	347.0000	0
15:06:19	198.0000	317.0000	0
15:06:19	201.0000	403.0000	0
15:06:19	206.0000	356.0000	0
15:06:19	205.0000	325.0000	0
15:06:19	206.0000	303.0000	0
15:06:19	204.0000	385.0000	0
15:06:19	199.0000	352.0000	0
15:06:19	198.0000	321.0000	0
15:06:19	199.0000	294.0000	0
15:06:19	213.0000	384.0000	0
15:06:19	209.0000	349.0000	0
15:06:19	218.0000	318.0000	0
15:06:19	211.0000	294.0000	0
15:06:19	215.0000	385.0000	0
15:06:19	211.0000	347.0000	0
15:06:19	214.0000	320.0000	0
15:06:19	211.0000	293.0000	0
15:06:19	211.0000	385.0000	0
15:06:19	210.0000	349.0000	0
15:06:19	209.0000	320.0000	0
15:06:19	211.0000	294.0000	0
15:06:19	213.0000	385.0000	0
15:06:19	211.0000	348.0000	0
15:06:19	210.0000	320.0000	0
15:06:19	213.0000	297.0000	0
15:06:19	213.0000	390.0000	0
15:06:19	208.0000	347.0000	0
15:06:19	213.0000	318.0000	0
15:06:19	211.0000	298.0000	0
15:06:19	209.0000	397.0000	0
15:06:19	208.0000	351.0000	0
15:06:19	208.0000	320.0000	0
15:06:19	209.0000	293.0000	0
15:06:19	221.0000	397.0000	0
15:06:19	219.0000	350.0000	0
15:06:19	223.0000	320.0000	0
15:06:19	219.0000	295.0000	0
15:06:19	245.0000	399.0000	0
15:06:19	243.0000	352.0000	0
15:06:19	245.0000	324.0000	0
15:06:19	265.0000	403.0000	0
15:06:19	265.0000	367.0000	0
15:06:19	266.0000	336.0000	0
15:06:19	267.0000	314.0000	0
15:06:19	250.0000	395.0000	0
15:06:19	244.0000	360.0000	0
15:06:19	243.0000	332.0000	0
15:06:19	246.0000	297.0000	0
15:06:19	279.0000	390.0000	0
15:06:19	283.0000	351.0000	0
15:06:19	296.0000	334.0000	0
15:06:19	291.0000	305.0000	0
15:06:19	304.0000	393.0000	0
15:06:19	304.0000	363.0000	0
15:06:19	305.0000	336.0000	0
15:06:19	304.0000	314.0000	0
15:06:19	322.0000	400.0000	0
15:06:19	321.0000	367.0000	0
15:06:19	322.0000	340.0000	0
15:06:19	333.0000	318.0000	0
15:06:19	385.0000	404.0000	0
15:06:19	387.0000	373.0000	0
15:06:19	390.0000	351.0000	0
15:06:19	397.0000	327.0000	0
15:06:19	416.0000	411.0000	0
15:06:19	416.0000	379.0000	0
15:06:19	414.0000	358.0000	0
15:06:19	413.0000	336.0000	0
15:06:19	368.0000	410.0000	0
15:06:19	369.0000	378.0000	0
15:06:19	371.0000	353.0000	0
15:06:19	370.0000	333.0000	0
15:06:19	365.0000	410.0000	0
15:06:19	363.0000	378.0000	0
15:06:19	362.0000	351.0000	0
15:06:19	355.0000	331.0000	0
15:06:19	349.0000	417.0000	0
15:06:19	359.0000	366.0000	0
15:06:19	369.0000	350.0000	0
15:06:19	465.0000	432.0000	0
15:06:19	474.0000	395.0000	0
15:06:19	485.0000	368.0000	0
15:06:19	497.0000	350.0000	0
15:06:19	624.0000	430.0000	0
15:06:19	637.0000	404.0000	0
15:06:19	646.0000	391.0000	0
15:06:19	659.0000	374.0000	0
15:06:19	692.0000	443.0000	0
15:06:19	689.0000	419.0000	0
15:06:19	688.0000	402.0000	0
15:06:19	685.0000	390.0000	0
15:06:19	813.0000	457.0000	0
15:06:19	826.0000	437.0000	0
15:06:19	848.0000	429.0000	0
15:06:19	864.0000	418.0000	0
15:06:19	902.0000	470.0000	0
15:06:19	896.0000	453.0000	0
15:06:19	884.0000	439.0000	0
15:06:19	879.0000	431.0000	0
15:06:19	798.0000	474.0000	0
15:06:19	797.0000	454.0000	0
15:06:19	796.0000	434.0000	0
15:06:19	790.0000	419.0000	0
15:06:19	867.0000	475.0000	0
15:06:19	886.0000	455.0000	0
15:06:19	915.0000	442.0000	0
15:06:19	945.0000	434.0000	0
15:06:19	983.0000	494.0000	0
15:06:19	971.0000	468.0000	0
15:06:19	960.0000	458.0000	0
15:06:19	947.0000	447.0000	0
15:06:19	806.0000	491.0000	0
15:06:19	797.0000	463.0000	0
15:06:19	791.0000	443.0000	0
15:06:19	819.0000	483.0000	0
15:06:19	813.0000	463.0000	0
15:06:19	805.0000	443.0000	0
15:06:19	801.0000	432.0000	0
15:06:19	918.0000	480.0000	0
15:06:19	926.0000	464.0000	0
15:06:19	937.0000	449.0000	0
15:06:19	944.0000	442.0000	0
15:06:19	1023.0000	499.0000	0
15:06:19	1018.0000	469.0000	0
15:06:19	1014.0000	468.0000	0
15:06:19	1009.0000	461.0000	0
15:06:19	1184.0000	505.0000	0
15:06:19	1197.0000	496.0000	0
15:06:19	1188.0000	493.0000	0
15:06:19	1185.0000	478.0000	0
15:06:19	1042.0000	511.0000	0
15:06:19	1023.0000	500.0000	0
15:06:19	1017.0000	485.0000	0
15:06:19	1013.0000	473.0000	0
15:06:19	945.0000	506.0000	0
15:06:19	944.0000	485.0000	0
15:06:19	940.0000	470.0000	0
15:06:19	1008.0000	507.0000	0
15:06:19	1014.0000	490.0000	0
15:06:19	1010.0000	475.0000	0
15:06:19	1003.0000	466.0000	0
15:06:19	1319.0000	531.0000	0
15:06:19	1321.0000	511.0000	0
15:06:19	1312.0000	511.0000	0
15:06:19	1319.0000	511.0000	0
15:06:19	1535.0000	571.0000	0
15:06:19	1535.0000	561.0000	0
15:06:19	1535.0000	565.0000	0
15:06:19	1535.0000	574.0000	0
15:06:19	1305.0000	589.0000	0
15:06:19	1294.0000	569.0000	0
15:06:19	1280.0000	550.0000	0
15:06:19	1270.0000	551.0000	0
15:06:19	1104.0000	567.0000	0
15:06:19	1098.0000	541.0000	0
15:06:19	1104.0000	528.0000	0
15:06:19	1122.0000	544.0000	0
15:06:19	1161.0000	528.0000	0
15:06:19	1204.0000	511.0000	0
15:06:19	1247.0000	511.0000	0
15:06:19	1634.0000	565.0000	0
15:06:19	1651.0000	574.0000	0
15:06:19	1675.0000	580.0000	0
15:06:19	1680.0000	592.0000	0
15:06:19	1625.0000	606.0000	0
15:06:19	1610.0000	606.0000	0
15:06:19	1600.0000	610.0000	0
15:06:19	1593.0000	610.0000	0
15:06:19	1440.0000	609.0000	0
15:06:19	1448.0000	599.0000	0
15:06:19	1442.0000	596.0000	0
15:06:19	1327.0000	607.0000	0
15:06:19	1320.0000	583.0000	0
15:06:19	1310.0000	575.0000	0
15:06:19	1295.0000	566.0000	0
15:06:19	1456.0000	593.0000	0
15:06:19	1446.0000	578.0000	0
15:06:19	1442.0000	576.0000	0
15:06:19	1455.0000	577.0000	0
15:06:19	1654.0000	608.0000	0
15:06:19	1644.0000	601.0000	0
15:06:19	1627.0000	606.0000	0
15:06:19	1610.0000	610.0000	0
15:06:19	1566.0000	624.0000	0
15:06:19	1581.0000	613.0000	0
15:06:19	1601.0000	614.0000	0
15:06:19	1453.0000	624.0000	0
15:06:19	1430.0000	592.0000	0
15:06:19	1424.0000	598.0000	0
15:06:19	1414.0000	593.0000	0
15:06:20	1648.0000	609.0000	0
15:06:20	1642.0000	611.0000	0
15:06:20	1632.0000	617.0000	0
15:06:20	1617.0000	617.0000	0
15:06:20	1837.0000	636.0000	0
15:06:20	1813.0000	641.0000	0
15:06:20	1801.0000	653.0000	0
15:06:20	1786.0000	656.0000	0
15:06:20	1891.0000	659.0000	0
15:06:20	1904.0000	670.0000	0
15:06:20	1915.0000	687.0000	0
15:06:20	1904.0000	687.0000	0
15:06:20	2513.0000	719.0000	0
15:06:20	2535.0000	753.0000	0
15:06:20	2559.0000	788.0000	3
15:06:20	2314.0000	786.0000	0
15:06:20	2361.0000	797.0000	0
15:06:20	2449.0000	814.0000	17
15:06:20	2544.0000	829.0000	22
15:06:20	2877.0000	865.0000	0
15:06:20	2861.0000	896.0000	0
15:06:20	2832.0000	915.0000	20
15:06:20	2802.0000	935.0000	29
15:06:20	2455.0000	934.0000	0
15:06:20	2434.0000	935.0000	0
15:06:20	2412.0000	935.0000	21
15:06:20	2384.0000	930.0000	28
15:06:20	2377.0000	925.0000	0
15:06:20	2474.0000	929.0000	0
15:06:20	2608.0000	937.0000	26
15:06:20	3250.0000	959.0000	0
15:06:20	3219.0000	992.0000	15
15:06:20	3191.0000	1030.0000	29
15:06:20	3185.0000	1046.0000	54
15:06:20	3163.0000	1072.0000	0
15:06:20	3223.0000	1101.0000	16
15:06:20	3302.0000	1118.0000	43
15:06:20	3383.0000	1139.0000	57
15:06:20	3674.0000	1168.0000	0
15:06:20	3678.0000	1197.0000	30
15:06:20	3664.0000	1210.0000	51
15:06:20	3367.0000	1230.0000	0
15:06:20	3318.0000	1227.0000	18
15:06:20	3278.0000	1221.0000	57
15:06:20	3269.0000	1227.0000	66
15:06:20	3314.0000	1253.0000	0
15:06:20	3262.0000	1244.0000	24
15:06:20	3219.0000	1231.0000	54
15:06:20	3214.0000	1235.0000	74
15:06:20	3259.0000	1254.0000	0
15:06:20	3245.0000	1250.0000	25
15:06:20	3200.0000	1244.0000	48
15:06:20	3426.0000	1250.0000	0
15:06:20	3369.0000	1256.0000	21
15:06:20	3306.0000	1249.0000	53
15:06:20	3246.0000	1244.0000	75
15:06:20	3695.0000	1282.0000	0
15:06:20	3693.0000	1290.0000	29
15:06:20	3691.0000	1291.0000	61
15:06:20	3693.0000	1299.0000	82
15:06:20	3694.0000	1328.0000	0
15:06:20	3695.0000	1331.0000	34
15:06:20	3711.0000	745.0000	0
15:06:20	3703.0000	828.0000	0
15:06:20	3705.0000	884.0000	32
15:06:20	3703.0000	927.0000	0
15:06:20	3703.0000	986.0000	19
15:06:20	3697.0000	1030.0000	38
15:06:20	3701.0000	1069.0000	60
15:06:20	3707.0000	1115.0000	0
15:06:20	3675.0000	1058.0000	0
15:06:20	3682.0000	1120.0000	0
15:06:20	3677.0000	1143.0000	29
15:06:20	3696.0000	1163.0000	0
15:06:20	3696.0000	1194.0000	17
15:06:20	3710.0000	1206.0000	48
15:06:20	3699.0000	1231.0000	66
15:06:20	3714.0000	1261.0000	0
15:06:20	3697.0000	1271.0000	19
15:06:20	3726.0000	1268.0000	55
15:06:20	3703.0000	1285.0000	79
15:06:20	3705.0000	1316.0000	0
15:06:20	3697.0000	1320.0000	33
15:06:20	3697.0000	1312.0000	63
15:06:20	3699.0000	1338.0000	0
15:06:20	3699.0000	1331.0000	37
15:06:20	3698.0000	1326.0000	65
15:06:20	3694.0000	1326.0000	86
15:06:20	3701.0000	1364.0000	0
15:06:20	3696.0000	1363.0000	32
15:06:20	3695.0000	1358.0000	63
15:06:20	3696.0000	1366.0000	81
15:06:20	3703.0000	1385.0000	0
15:06:20	3706.0000	1376.0000	31
15:06:20	3702.0000	1368.0000	62
15:06:20	3708.0000	1381.0000	0
15:06:20	3705.0000	1373.0000	32
15:06:20	3697.0000	1368.0000	63
15:06:20	3696.0000	1365.0000	83
15:06:20	3709.0000	1397.0000	0
15:06:20	3682.0000	1384.0000	25
15:06:20	3673.0000	1373.0000	66
15:06:20	3683.0000	1377.0000	81
15:06:20	3701.0000	1407.0000	0
15:06:20	3697.0000	1388.0000	39
15:06:20	3712.0000	1375.0000	71
15:06:20	3702.0000	1398.0000	0
15:06:20	3702.0000	1388.0000	33
15:06:20	3696.0000	1380.0000	62
15:06:20	3702.0000	1373.0000	85
15:06:20	3698.0000	1404.0000	0
15:06:20	3698.0000	1389.0000	36
15:06:20	3699.0000	1386.0000	69
15:06:20	3697.0000	1376.0000	90
15:06:20	3702.0000	1410.0000	0
15:06:20	3696.0000	1399.0000	32
15:06:20	3699.0000	1379.0000	64
15:06:20	3699.0000	1398.0000	0
15:06:20	3695.0000	1390.0000	33
15:06:20	3706.0000	1378.0000	63
15:06:20	3700.0000	1376.0000	88
15:06:20	3707.0000	1407.0000	0
15:06:20	3696.0000	1389.0000	41
15:06:20	3696.0000	1383.0000	65
15:06:20	3707.0000	1392.0000	0
15:06:20	3696.0000	1389.0000	30
15:06:20	3697.0000	1381.0000	62
15:06:20	3697.0000	1379.0000	82
15:06:20	3703.0000	1407.0000	0
15:06:20	3703.0000	1392.0000	32
15:06:20	3696.0000	1386.0000	65
15:06:20	3696.0000	1378.0000	88
15:06:20	3680.0000	1399.0000	0
15:06:20	3701.0000	1393.0000	43
15:06:20	3703.0000	1379.0000	69
15:06:20	3698.0000	1399.0000	0
15:06:20	3695.0000	1389.0000	35
15:06:20	3696.0000	1384.0000	65
15:06:20	3698.0000	1374.0000	90
15:06:20	3697.0000	1410.0000	0
15:06:20	3696.0000	1392.0000	34
15:06:20	3705.0000	1381.0000	68
15:06:20	3702.0000	1376.0000	90
15:06:20	3696.0000	1414.0000	0
15:06:20	3697.0000	1401.0000	31
15:06:20	3697.0000	1388.0000	62
15:06:20	3702.0000	1399.0000	0
15:06:20	3696.0000	1392.0000	29
15:06:20	3707.0000	1380.0000	64
15:06:20	3702.0000	1374.0000	85
15:06:20	3708.0000	1403.0000	5
15:06:20	3698.0000	1392.0000	38
15:06:20	3705.0000	1386.0000	70
15:06:20	3696.0000	1377.0000	91
15:06:20	3705.0000	1412.0000	0
15:06:20	3698.0000	1402.0000	33
15:06:20	3705.0000	1391.0000	64
15:06:20	3706.0000	1402.0000	0
15:06:20	3694.0000	1390.0000	43
15:06:20	3702.0000	1379.0000	64
15:06:20	3698.0000	1379.0000	82
15:06:21	3710.0000	1408.0000	0
15:06:21	3698.0000	1395.0000	42
15:06:21	3696.0000	1389.0000	64
15:06:21	3701.0000	1383.0000	87
15:06:21	3705.0000	1415.0000	0
15:06:21	3698.0000	1402.0000	45
15:06:21	3707.0000	1388.0000	76
15:06:21	3707.0000	1410.0000	0
15:06:21	3701.0000	1391.0000	48
15:06:21	3713.0000	1374.0000	77
15:06:21	3675.0000	1376.0000	99
15:06:21	3706.0000	1423.0000	0
15:06:21	3697.0000	1401.0000	31
15:06:21	3699.0000	1390.0000	71
15:06:21	3699.0000	1384.0000	83
15:06:21	3715.0000	1419.0000	0
15:06:21	3706.0000	1400.0000	42
15:06:21	3700.0000	1391.0000	63
15:06:21	3700.0000	1401.0000	0
15:06:21	3700.0000	1388.0000	39
15:06:21	3698.0000	1384.0000	66
15:06:21	3707.0000	1376.0000	95
15:06:21	3703.0000	1409.0000	0
15:06:21	3699.0000	1392.0000	43
15:06:21	3699.0000	1382.0000	68
15:06:21	3696.0000	1381.0000	92
15:06:21	3719.0000	1424.0000	0
15:06:21	3680.0000	1404.0000	35
15:06:21	3707.0000	1391.0000	66
15:06:21	3703.0000	1401.0000	0
15:06:21	3696.0000	1389.0000	34
15:06:21	3699.0000	1382.0000	64
15:06:21	3696.0000	1380.0000	80
15:06:21	3718.0000	1405.0000	0
15:06:21	3718.0000	1414.0000	21
15:06:21	3728.0000	1390.0000	64
15:06:21	3707.0000	1389.0000	94
15:06:21	3703.0000	1412.0000	0
15:06:21	3697.0000	1399.0000	32
15:06:21	3707.0000	1389.0000	64
15:06:21	3707.0000	1402.0000	0
15:06:21	3703.0000	1390.0000	31
15:06:21	3696.0000	1386.0000	62
15:06:21	3703.0000	1381.0000	82
15:06:21	3705.0000	1407.0000	0
15:06:21	3701.0000	1393.0000	29
15:06:21	3701.0000	1388.0000	62
15:06:21	3702.0000	1384.0000	82
15:06:21	3699.0000	1417.0000	0
15:06:21	3711.0000	1412.0000	31
15:06:21	3696.0000	1384.0000	64
15:06:21	3696.0000	1404.0000	0
15:06:21	3712.0000	1395.0000	20
15:06:21	3718.0000	1391.0000	63
15:06:21	3717.0000	1387.0000	77
15:06:21	3701.0000	1408.0000	0
15:06:21	3701.0000	1392.0000	34
15:06:21	3700.0000	1384.0000	66
15:06:21	3697.0000	1376.0000	92
15:06:21	3705.0000	1411.0000	0
15:06:21	3694.0000	1399.0000	31
15:06:21	3698.0000	1391.0000	63
15:06:21	3695.0000	1392.0000	0
15:06:21	3686.0000	1382.0000	36
15:06:21	3701.0000	1385.0000	64
15:06:21	3700.0000	1381.0000	85
15:06:21	3706.0000	1411.0000	0
15:06:21	3703.0000	1395.0000	39
15:06:21	3696.0000	1386.0000	53
15:06:21	3715.0000	1381.0000	82
15:06:21	3706.0000	1414.0000	0
15:06:21	3728.0000	1401.0000	31
15:06:21	3698.0000	1391.0000	64
15:06:21	3709.0000	1401.0000	0
15:06:21	3706.0000	1392.0000	38
15:06:21	3719.0000	1381.0000	66
15:06:21	3706.0000	1378.0000	93
15:06:21	3696.0000	1410.0000	0
15:06:21	3709.0000	1400.0000	38
15:06:21	3724.0000	1389.0000	66
15:06:21	3713.0000	1387.0000	0
15:06:21	3719.0000	1397.0000	31
15:06:21	3713.0000	1383.0000	53
15:06:21	3699.0000	1375.0000	96
15:06:21	3718.0000	1392.0000	0
15:06:21	3730.0000	1407.0000	28
15:06:21	3718.0000	1408.0000	48
15:06:21	3699.0000	1388.0000	82
15:06:21	3694.0000	1395.0000	0
15:06:21	3714.0000	1400.0000	40
15:06:21	3702.0000	1388.0000	67
15:06:21	3702.0000	1394.0000	0
15:06:21	3711.0000	1396.0000	16
15:06:21	3714.0000	1385.0000	55
15:06:21	3711.0000	1387.0000	71
15:06:21	3703.0000	1406.0000	0
15:06:21	3698.0000	1392.0000	33
15:06:21	3699.0000	1381.0000	65
15:06:21	3696.0000	1377.0000	87
15:06:21	3712.0000	1406.0000	0
15:06:21	3702.0000	1396.0000	39
15:06:21	3703.0000	1391.0000	70
15:06:21	3709.0000	1397.0000	0
15:06:21	3695.0000	1385.0000	34
15:06:21	3696.0000	1380.0000	64
15:06:21	3699.0000	1373.0000	86
15:06:21	3704.0000	1401.0000	0
15:06:21	3695.0000	1395.0000	33
15:06:21	3701.0000	1386.0000	64
15:06:21	3697.0000	1379.0000	89
15:06:21	3703.0000	1411.0000	0
15:06:21	3696.0000	1392.0000	38
15:06:21	3703.0000	1381.0000	69
15:06:21	3715.0000	1403.0000	0
15:06:21	3697.0000	1391.0000	31
15:06:21	3707.0000	1383.0000	65
15:06:21	3703.0000	1364.0000	89
15:06:21	3699.0000	1406.0000	0
15:06:21	3699.0000	1392.0000	35
15:06:21	3714.0000	1383.0000	67
15:06:21	3706.0000	1375.0000	89
15:06:21	3703.0000	1414.0000	0
15:06:21	3681.0000	1392.0000	42
15:06:21	3706.0000	1376.0000	73
15:06:21	3710.0000	1403.0000	0
15:06:21	3710.0000	1392.0000	31
15:06:21	3702.0000	1379.0000	64
15:06:21	3697.0000	1374.0000	92
15:06:21	3702.0000	1410.0000	0
15:06:21	3702.0000	1394.0000	35
15:06:21	3703.0000	1384.0000	68
15:06:21	3696.0000	1376.0000	92
15:06:21	3707.0000	1415.0000	0
15:06:21	3701.0000	1405.0000	35
15:06:21	3701.0000	1391.0000	65
15:06:21	3703.0000	1405.0000	0
15:06:21	3697.0000	1390.0000	35
15:06:21	3707.0000	1385.0000	65
15:06:21	3697.0000	1375.0000	90
15:06:21	3707.0000	1412.0000	0
15:06:21	3697.0000	1393.0000	39
15:06:21	3707.0000	1383.0000	64
15:06:21	3709.0000	1373.0000	89
15:06:21	3708.0000	1417.0000	0
15:06:21	3701.0000	1401.0000	32
15:06:22	3706.0000	1386.0000	64
15:06:22	3707.0000	1406.0000	0
15:06:22	3708.0000	1389.0000	34
15:06:22	3687.0000	1389.0000	53
15:06:22	3701.0000	1382.0000	85
15:06:22	3693.0000	1401.0000	0
15:06:22	3705.0000	1400.0000	34
15:06:22	3697.0000	1392.0000	62
15:06:22	3706.0000	1388.0000	83
15:06:22	3707.0000	1413.0000	0
15:06:22	3704.0000	1403.0000	36
15:06:22	3697.0000	1385.0000	64
15:06:22	3707.0000	1399.0000	0
15:06:22	3703.0000	1389.0000	31
15:06:22	3696.0000	1384.0000	63
15:06:22	3707.0000	1383.0000	83
15:06:22	3701.0000	1405.0000	0
15:06:22	3699.0000	1394.0000	33
15:06:22	3699.0000	1387.0000	64
15:06:22	3703.0000	1381.0000	86
15:06:22	3705.0000	1407.0000	0
15:06:22	3710.0000	1396.0000	33
15:06:22	3697.0000	1388.0000	64
15:06:22	3697.0000	1397.0000	0
15:06:22	3697.0000	1390.0000	33
15:06:22	3685.0000	1366.0000	66
15:06:22	3705.0000	1378.0000	85
15:06:22	3700.0000	1408.0000	0
15:06:22	3696.0000	1400.0000	32
15:06:22	3699.0000	1390.0000	64
15:06:22	3706.0000	1382.0000	85
15:06:22	3730.0000	1410.0000	0
15:06:22	3702.0000	1399.0000	34
15:06:22	3699.0000	1389.0000	64
15:06:22	3710.0000	1403.0000	0
15:06:22	3696.0000	1388.0000	37
15:06:22	3696.0000	1383.0000	67
15:06:22	3698.0000	1373.0000	87
15:06:22	3712.0000	1412.0000	0
15:06:22	3683.0000	1399.0000	18
15:06:22	3710.0000	1390.0000	63
15:06:22	3698.0000	1394.0000	0
15:06:22	3699.0000	1392.0000	30
15:06:22	3703.0000	1380.0000	64
15:06:22	3698.0000	1375.0000	87
15:06:22	3705.0000	1408.0000	0
15:06:22	3694.0000	1395.0000	33
15:06:22	3701.0000	1391.0000	70
15:06:22	3698.0000	1379.0000	89
15:06:22	3697.0000	1418.0000	0
15:06:22	3697.0000	1399.0000	38
15:06:22	3700.0000	1387.0000	76
15:06:22	3708.0000	1403.0000	0
15:06:22	3702.0000	1390.0000	46
15:06:22	3703.0000	1378.0000	62
15:06:22	3701.0000	1376.0000	92
15:06:22	3707.0000	1408.0000	0
15:06:22	3698.0000	1385.0000	45
15:06:22	3697.0000	1382.0000	67
15:06:22	3706.0000	1380.0000	91
15:06:22	3707.0000	1410.0000	0
15:06:22	3696.0000	1387.0000	47
15:06:22	3697.0000	1384.0000	66
15:06:22	3725.0000	1410.0000	0
15:06:22	3697.0000	1392.0000	25
15:06:22	3702.0000	1374.0000	64
15:06:22	3698.0000	1388.0000	80
15:06:22	3723.0000	1419.0000	0
15:06:22	3699.0000	1396.0000	32
15:06:22	3698.0000	1376.0000	70
15:06:22	3700.0000	1380.0000	83
15:06:22	3726.0000	1424.0000	0
15:06:22	3698.0000	1402.0000	34
15:06:22	3699.0000	1381.0000	75
15:06:22	3707.0000	1403.0000	0
15:06:22	3712.0000	1391.0000	35
15:06:22	3697.0000	1379.0000	77
15:06:22	3707.0000	1377.0000	99
15:06:22	3724.0000	1418.0000	0
15:06:22	3714.0000	1402.0000	33
15:06:22	3699.0000	1382.0000	64
15:06:22	3696.0000	1383.0000	97
15:06:22	3703.0000	1411.0000	0
15:06:22	3713.0000	1393.0000	43
15:06:22	3696.0000	1377.0000	71
15:06:22	3725.0000	1396.0000	0
15:06:22	3698.0000	1390.0000	32
15:06:22	3719.0000	1381.0000	64
15:06:22	3697.0000	1379.0000	84
15:06:22	3722.0000	1404.0000	0
15:06:22	3700.0000	1392.0000	42
15:06:22	3713.0000	1385.0000	67
15:06:22	3696.0000	1380.0000	94
15:06:22	3719.0000	1407.0000	0
15:06:22	3697.0000	1400.0000	34
15:06:22	3714.0000	1398.0000	64
15:06:22	3705.0000	1403.0000	0
15:06:22	3715.0000	1394.0000	32
15:06:22	3698.0000	1382.0000	64
15:06:22	3719.0000	1376.0000	87
15:06:22	3698.0000	1405.0000	0
15:06:22	3717.0000	1401.0000	31
15:06:22	3713.0000	1390.0000	63
15:06:22	3711.0000	1388.0000	86
15:06:22	3708.0000	1413.0000	0
15:06:22	3717.0000	1400.0000	32
15:06:22	3700.0000	1383.0000	65
15:06:22	3708.0000	1404.0000	0
15:06:22	3682.0000	1393.0000	22
15:06:22	3723.0000	1388.0000	63
15:06:22	3714.0000	1398.0000	74
15:06:22	3700.0000	1411.0000	0
15:06:22	3685.0000	1397.0000	38
15:06:22	3713.0000	1391.0000	64
15:06:22	3703.0000	1388.0000	82
15:06:22	3701.0000	1415.0000	0
15:06:22	3699.0000	1401.0000	34
15:06:22	3711.0000	1387.0000	74
15:06:22	3703.0000	1404.0000	0
15:06:22	3702.0000	1393.0000	34
15:06:22	3700.0000	1386.0000	64
15:06:22	3713.0000	1385.0000	81
15:06:22	3711.0000	1411.0000	0
15:06:22	3695.0000	1395.0000	32
15:06:22	3699.0000	1392.0000	62
15:06:22	3717.0000	1385.0000	82
15:06:22	3703.0000	1414.0000	0
15:06:22	3697.0000	1393.0000	33
15:06:22	3696.0000	1392.0000	64
15:06:22	3705.0000	1399.0000	0
15:06:22	3700.0000	1391.0000	32
15:06:22	3696.0000	1385.0000	64
15:06:22	3701.0000	1381.0000	82
15:06:22	3718.0000	1408.0000	0
15:06:22	3702.0000	1395.0000	33
15:06:22	3710.0000	1378.0000	64
15:06:22	3699.0000	1385.0000	81
15:06:22	3702.0000	1414.0000	0
15:06:22	3709.0000	1398.0000	42
15:06:22	3705.0000	1380.0000	71
15:06:22	3712.0000	1405.0000	0
15:06:22	3698.0000	1389.0000	37
15:06:22	3705.0000	1378.0000	71
15:06:22	3723.0000	1377.0000	89
15:06:22	3697.0000	1404.0000	0
15:06:22	3717.0000	1403.0000	21
15:06:22	3714.0000	1395.0000	49
15:06:22	3706.0000	1404.0000	0
15:06:22	3696.0000	1389.0000	32
15:06:22	3710.0000	1382.0000	69
15:06:22	3701.0000	1380.0000	80
15:06:22	3705.0000	1407.0000	0
15:06:22	3709.0000	1392.0000	38
15:06:22	3711.0000	1381.0000	74
15:06:22	3706.0000	1377.0000	97
15:06:22	3699.0000	1413.0000	0
15:06:22	3703.0000	1399.0000	39
15:06:22	3721.0000	1398.0000	67
15:06:22	3709.0000	1407.0000	0
15:06:22	3727.0000	1406.0000	39
15:06:22	3709.0000	1380.0000	70
15:06:22	3711.0000	1367.0000	103
15:06:22	3705.0000	1414.0000	0
15:06:22	3710.0000	1402.0000	48
15:06:22	3708.0000	1383.0000	71
15:06:22	3707.0000	1378.0000	94
15:06:22	3709.0000	1414.0000	0
15:06:22	179.0000	575.0000	0
15:06:22	181.0000	524.0000	0
15:06:22	179.0000	464.0000	0
15:06:22	175.0000	468.0000	0
15:06:22	177.0000	419.0000	0
15:06:22	176.0000	384.0000	0
15:06:22	161.0000	558.0000	0
15:06:22	173.0000	496.0000	0
15:06:22	160.0000	447.0000	0
15:06:22	159.0000	402.0000	0
15:06:22	161.0000	432.0000	0
15:06:22	161.0000	398.0000	0
15:06:22	160.0000	363.0000	0
15:06:22	155.0000	402.0000	0
15:06:22	161.0000	368.0000	0
15:06:22	161.0000	334.0000	0
15:06:22	156.0000	303.0000	0
15:06:22	154.0000	391.0000	0
15:06:22	154.0000	349.0000	0
15:06:22	155.0000	319.0000	0
15:06:22	161.0000	293.0000	0
15:06:22	157.0000	385.0000	0
15:06:22	156.0000	345.0000	0
15:06:22	154.0000	311.0000	0
15:06:22	157.0000	288.0000	0
15:06:22	153.0000	373.0000	0
15:06:22	155.0000	343.0000	0
15:06:22	154.0000	311.0000	0
15:06:22	151.0000	285.0000	0
15:06:22	155.0000	377.0000	0
15:06:22	159.0000	342.0000	0
15:06:22	154.0000	309.0000	0
15:06:22	150.0000	283.0000	0
15:06:22	156.0000	381.0000	0
15:06:22	154.0000	343.0000	0
15:06:22	152.0000	311.0000	0
15:06:22	151.0000	287.0000	0
15:06:22	153.0000	381.0000	0
15:06:22	164.0000	341.0000	0
15:06:22	155.0000	308.0000	0
15:06:22	151.0000	281.0000	0
15:06:22	154.0000	381.0000	0
15:06:22	153.0000	342.0000	0
15:06:22	154.0000	313.0000	0
15:06:22	148.0000	290.0000	0
15:06:22	151.0000	380.0000	0
15:06:22	154.0000	338.0000	0
15:06:22	150.0000	310.0000	0
15:06:22	155.0000	391.0000	0
15:06:22	153.0000	350.0000	0
15:06:22	148.0000	322.0000	0
15:06:22	150.0000	289.0000	0
15:06:22	152.0000	384.0000	0
15:06:22	151.0000	341.0000	0
15:06:22	150.0000	318.0000	0
15:06:22	150.0000	286.0000	0
15:06:22	150.0000	382.0000	0
15:06:22	153.0000	339.0000	0
15:06:22	153.0000	314.0000	0
15:06:22	149.0000	283.0000	0
15:06:22	148.0000	383.0000	0
15:06:23	149.0000	341.0000	0
15:06:23	149.0000	313.0000	0
15:06:23	150.0000	285.0000	0
15:06:23	149.0000	382.0000	0
15:06:23	148.0000	338.0000	0
15:06:23	147.0000	307.0000	0
15:06:23	144.0000	275.0000	0
15:06:23	150.0000	382.0000	0
15:06:23	150.0000	339.0000	0
15:06:23	148.0000	304.0000	0
15:06:23	161.0000	284.0000	0
15:06:23	153.0000	382.0000	0
15:06:23	151.0000	338.0000	0
15:06:23	145.0000	310.0000	0
15:06:23	149.0000	283.0000	0
15:06:23	151.0000	379.0000	0
15:06:23	153.0000	337.0000	0
15:06:23	148.0000	309.0000	0
15:06:23	152.0000	285.0000	0
15:06:23	155.0000	379.0000	0
15:06:23	157.0000	340.0000	0
15:06:23	150.0000	307.0000	0
15:06:23	157.0000	286.0000	0
15:06:23	154.0000	379.0000	0
15:06:23	159.0000	339.0000	0
15:06:23	159.0000	318.0000	0
15:06:23	158.0000	392.0000	0
15:06:23	149.0000	349.0000	0
15:06:23	158.0000	313.0000	0
15:06:23	161.0000	302.0000	0
15:06:23	157.0000	384.0000	0
15:06:23	149.0000	343.0000	0
15:06:23	155.0000	314.0000	0
15:06:23	164.0000	298.0000	0
15:06:23	160.0000	380.0000	0
15:06:23	165.0000	351.0000	0
15:06:23	161.0000	313.0000	0
15:06:23	162.0000	295.0000	0
15:06:23	160.0000	383.0000	0
15:06:23	164.0000	352.0000	0
15:06:23	160.0000	314.0000	0
15:06:23	161.0000	297.0000	0
15:06:23	144.0000	370.0000	0
15:06:23	164.0000	344.0000	0
15:06:23	161.0000	320.0000	0
15:06:23	169.0000	286.0000	0
15:06:23	166.0000	379.0000	0
15:06:23	171.0000	342.0000	0
15:06:23	164.0000	308.0000	0
15:06:23	171.0000	292.0000	0
15:06:23	175.0000	382.0000	0
15:06:23	177.0000	341.0000	0
15:06:23	173.0000	310.0000	0
15:06:23	183.0000	293.0000	0
15:06:23	178.0000	382.0000	0
15:06:23	180.0000	342.0000	0
15:06:23	176.0000	311.0000	0
15:06:23	187.0000	299.0000	0
15:06:23	180.0000	383.0000	0
15:06:23	180.0000	345.0000	0
15:06:23	176.0000	321.0000	0
15:06:23	177.0000	394.0000	0
15:06:23	178.0000	355.0000	0
15:06:23	182.0000	332.0000	0
15:06:23	181.0000	297.0000	0
15:06:23	183.0000	384.0000	0
15:06:23	180.0000	346.0000	0
15:06:23	187.0000	327.0000	0
15:06:23	186.0000	289.0000	0
15:06:23	180.0000	381.0000	0
15:06:23	177.0000	345.0000	0
15:06:23	191.0000	324.0000	0
15:06:23	179.0000	288.0000	0
15:06:23	176.0000	380.0000	0
15:06:23	182.0000	345.0000	0
15:06:23	186.0000	319.0000	0
15:06:23	182.0000	288.0000	0
15:06:23	172.0000	383.0000	0
15:06:23	185.0000	351.0000	0
15:06:23	191.0000	325.0000	0
15:06:23	187.0000	300.0000	0
15:06:23	187.0000	393.0000	0
15:06:23	181.0000	342.0000	0
15:06:23	177.0000	314.0000	0
15:06:23	177.0000	289.0000	0
15:06:23	189.0000	393.0000	0
15:06:23	183.0000	345.0000	0
15:06:23	182.0000	318.0000	0
15:06:23	187.0000	290.0000	0
15:06:23	182.0000	395.0000	0
15:06:23	181.0000	344.0000	0
15:06:23	178.0000	322.0000	0
15:06:23	181.0000	287.0000	0
15:06:23	183.0000	394.0000	0
15:06:23	182.0000	342.0000	0
15:06:23	182.0000	323.0000	0
15:06:23	185.0000	394.0000	0
15:06:23	193.0000	362.0000	0
15:06:23	187.0000	324.0000	0
15:06:23	183.0000	294.0000	0
15:06:23	187.0000	385.0000	0
15:06:23	185.0000	350.0000	0
15:06:23	183.0000	319.0000	0
15:06:23	181.0000	289.0000	0
15:06:23	182.0000	383.0000	0
15:06:23	185.0000	347.0000	0
15:06:23	186.0000	315.0000	0
15:06:23	182.0000	292.0000	0
15:06:23	185.0000	386.0000	0
15:06:23	181.0000	344.0000	0
15:06:23	185.0000	314.0000	0
15:06:23	182.0000	292.0000	0
15:06:23	182.0000	387.0000	0
15:06:23	179.0000	348.0000	0
15:06:23	181.0000	319.0000	0
15:06:23	187.0000	290.0000	0
15:06:23	190.0000	389.0000	0
15:06:23	192.0000	350.0000	0
15:06:23	189.0000	320.0000	0
15:06:23	191.0000	302.0000	0
15:06:23	189.0000	385.0000	0
15:06:23	183.0000	349.0000	0
15:06:23	188.0000	318.0000	0
15:06:23	190.0000	289.0000	0
15:06:23	189.0000	384.0000	0
15:06:23	186.0000	348.0000	0
15:06:23	186.0000	317.0000	0
15:06:23	190.0000	292.0000	0
15:06:23	186.0000	384.0000	0
15:06:23	190.0000	342.0000	0
15:06:23	187.0000	315.0000	0
15:06:23	190.0000	395.0000	0
15:06:23	185.0000	357.0000	0
15:06:23	183.0000	322.0000	0
15:06:23	186.0000	298.0000	0
15:06:23	183.0000	387.0000	0
15:06:23	185.0000	346.0000	0
15:06:23	187.0000	318.0000	0
15:06:23	187.0000	291.0000	0
15:06:23	185.0000	381.0000	0
15:06:23	192.0000	345.0000	0
15:06:23	189.0000	315.0000	0
15:06:23	192.0000	288.0000	0
15:06:23	186.0000	382.0000	0
15:06:23	189.0000	347.0000	0
15:06:23	176.0000	320.0000	0
15:06:23	187.0000	293.0000	0
15:06:23	187.0000	382.0000	0
15:06:23	190.0000	347.0000	0
15:06:23	191.0000	306.0000	0
15:06:23	190.0000	291.0000	0
15:06:23	192.0000	385.0000	0
15:06:23	191.0000	345.0000	0
15:06:23	190.0000	315.0000	0
15:06:23	191.0000	290.0000	0
15:06:23	184.0000	384.0000	0
15:06:23	197.0000	350.0000	0
15:06:23	187.0000	305.0000	0
15:06:23	195.0000	302.0000	0
15:06:23	190.0000	384.0000	0
15:06:23	192.0000	348.0000	0
15:06:23	192.0000	307.0000	0
15:06:23	193.0000	288.0000	0
15:06:23	193.0000	384.0000	0
15:06:23	193.0000	346.0000	0
15:06:23	189.0000	309.0000	0
15:06:23	192.0000	294.0000	0
15:06:23	193.0000	380.0000	0
15:06:23	187.0000	345.0000	0
15:06:23	186.0000	305.0000	0
15:06:23	186.0000	390.0000	0
15:06:23	183.0000	345.0000	0
15:06:23	188.0000	330.0000	0
15:06:23	188.0000	294.0000	0
15:06:23	185.0000	385.0000	0
15:06:23	186.0000	343.0000	0
15:06:23	188.0000	319.0000	0
15:06:23	187.0000	291.0000	0
15:06:23	186.0000	384.0000	0
15:06:23	186.0000	345.0000	0
15:06:23	184.0000	318.0000	0
15:06:23	186.0000	291.0000	0
15:06:23	183.0000	385.0000	0
15:06:23	188.0000	343.0000	0
15:06:23	183.0000	315.0000	0
15:06:23	183.0000	291.0000	0
15:06:23	178.0000	382.0000	0
15:06:23	181.0000	336.0000	0
15:06:23	187.0000	325.0000	0
15:06:24	182.0000	289.0000	0
15:06:24	177.0000	383.0000	0
15:06:24	180.0000	345.0000	0
15:06:24	179.0000	315.0000	0
15:06:24	182.0000	282.0000	0
15:06:24	186.0000	384.0000	0
15:06:24	188.0000	346.0000	0
15:06:24	186.0000	317.0000	0
15:06:24	183.0000	292.0000	0
15:06:24	187.0000	384.0000	0
15:06:24	190.0000	342.0000	0
15:06:24	189.0000	314.0000	0
15:06:24	190.0000	278.0000	0
15:06:24	185.0000	384.0000	0
15:06:24	186.0000	334.0000	0
15:06:24	183.0000	312.0000	0
15:06:24	185.0000	390.0000	0
15:06:24	185.0000	352.0000	0
15:06:24	181.0000	311.0000	0
15:06:24	182.0000	294.0000	0
15:06:24	187.0000	384.0000	0
15:06:24	182.0000	348.0000	0
15:06:24	185.0000	315.0000	0
15:06:24	183.0000	291.0000	0
15:06:24	184.0000	384.0000	0
15:06:24	183.0000	348.0000	0
15:06:24	183.0000	313.0000	0
15:06:24	182.0000	291.0000	0
15:06:24	187.0000	384.0000	0
15:06:24	185.0000	343.0000	0
15:06:24	188.0000	315.0000	0
15:06:24	185.0000	289.0000	0
15:06:24	189.0000	384.0000	0
15:06:24	191.0000	345.0000	0
15:06:24	193.0000	317.0000	0
15:06:24	191.0000	289.0000	0
15:06:24	191.0000	375.0000	0
15:06:24	187.0000	348.0000	0
15:06:24	191.0000	315.0000	0
15:06:24	185.0000	290.0000	0
15:06:24	187.0000	385.0000	0
15:06:24	185.0000	352.0000	0
15:06:24	186.0000	315.0000	0
15:06:24	181.0000	289.0000	0
15:06:24	182.0000	384.0000	0
15:06:24	176.0000	343.0000	0
15:06:24	177.0000	313.0000	0
15:06:24	185.0000	298.0000	0
15:06:24	177.0000	390.0000	0
15:06:24	177.0000	353.0000	0
15:06:24	177.0000	319.0000	0
15:06:24	181.0000	397.0000	0
15:06:24	186.0000	354.0000	0
15:06:24	179.0000	322.0000	0
15:06:24	182.0000	294.0000	0
15:06:24	190.0000	384.0000	0
15:06:24	192.0000	347.0000	0
15:06:24	194.0000	322.0000	0
15:06:24	192.0000	290.0000	0
15:06:24	188.0000	384.0000	0
15:06:24	191.0000	343.0000	0
15:06:24	191.0000	318.0000	0
15:06:24	192.0000	289.0000	0
15:06:24	185.0000	382.0000	0
15:06:24	187.0000	343.0000	0
15:06:24	190.0000	314.0000	0
15:06:24	188.0000	289.0000	0
15:06:24	183.0000	388.0000	0
15:06:24	187.0000	344.0000	0
15:06:24	187.0000	315.0000	0
15:06:24	185.0000	289.0000	0
15:06:24	191.0000	387.0000	0
15:06:24	190.0000	343.0000	0
15:06:24	191.0000	317.0000	0
15:06:24	195.0000	302.0000	0
15:06:24	192.0000	385.0000	0
15:06:24	192.0000	347.0000	0
15:06:24	189.0000	319.0000	0
15:06:24	190.0000	291.0000	0
15:06:24	192.0000	384.0000	0
15:06:24	192.0000	349.0000	0
15:06:24	192.0000	320.0000	0
15:06:24	199.0000	292.0000	0
15:06:24	190.0000	382.0000	0
15:06:24	190.0000	346.0000	0
15:06:24	187.0000	315.0000	0
15:06:24	190.0000	292.0000	0
15:06:24	185.0000	390.0000	0
15:06:24	178.0000	336.0000	0
15:06:24	189.0000	320.0000	0
15:06:24	191.0000	387.0000	0
15:06:24	187.0000	352.0000	0
15:06:24	182.0000	309.0000	0
15:06:24	192.0000	301.0000	0
15:06:24	191.0000	386.0000	0
15:06:24	192.0000	352.0000	0
15:06:24	189.0000	318.0000	0
15:06:24	194.0000	303.0000	0
15:06:24	187.0000	385.0000	0
15:06:24	187.0000	347.0000	0
15:06:24	185.0000	316.0000	0
15:06:24	194.0000	301.0000	0
15:06:24	191.0000	384.0000	0
15:06:24	185.0000	342.0000	0
15:06:24	189.0000	315.0000	0
15:06:24	194.0000	299.0000	0
15:06:24	188.0000	383.0000	0
15:06:24	178.0000	344.0000	0
15:06:24	185.0000	315.0000	0
15:06:24	192.0000	301.0000	0
15:06:24	187.0000	384.0000	0
15:06:24	177.0000	342.0000	0
15:06:24	184.0000	316.0000	0
15:06:24	192.0000	299.0000	0
15:06:24	185.0000	371.0000	0
15:06:24	180.0000	343.0000	0
15:06:24	183.0000	314.0000	0
15:06:24	189.0000	290.0000	0
15:06:24	187.0000	384.0000	0
15:06:24	179.0000	345.0000	0
15:06:24	186.0000	314.0000	0
15:06:24	188.0000	299.0000	0
15:06:24	189.0000	384.0000	0
15:06:24	192.0000	354.0000	0
15:06:25	183.0000	315.0000	0
15:06:25	180.0000	393.0000	0
15:06:25	194.0000	355.0000	0
15:06:25	196.0000	333.0000	0
15:06:25	194.0000	297.0000	0
15:06:25	187.0000	386.0000	0
15:06:25	192.0000	347.0000	0
15:06:25	193.0000	327.0000	0
15:06:25	190.0000	293.0000	0
15:06:25	190.0000	383.0000	0
15:06:25	192.0000	346.0000	0
15:06:25	190.0000	320.0000	0
15:06:25	189.0000	290.0000	0
15:06:25	189.0000	384.0000	0
15:06:25	190.0000	346.0000	0
15:06:25	191.0000	323.0000	0
15:06:25	191.0000	289.0000	0
15:06:25	187.0000	384.0000	0
15:06:25	189.0000	344.0000	0
15:06:25	186.0000	313.0000	0
15:06:25	185.0000	289.0000	0
15:06:25	190.0000	382.0000	0
15:06:25	190.0000	347.0000	0
15:06:25	192.0000	317.0000	0
15:06:25	193.0000	290.0000	0
15:06:25	191.0000	378.0000	0
15:06:25	178.0000	337.0000	0
15:06:25	192.0000	319.0000	0
15:06:25	192.0000	301.0000	0
15:06:25	190.0000	390.0000	0
15:06:25	187.0000	346.0000	0
15:06:25	190.0000	317.0000	0
15:06:25	185.0000	289.0000	0
15:06:25	189.0000	385.0000	0
15:06:25	190.0000	346.0000	0
15:06:25	190.0000	315.0000	0
15:06:25	187.0000	290.0000	0
15:06:25	190.0000	384.0000	0
15:06:25	182.0000	336.0000	0
15:06:25	196.0000	318.0000	0
15:06:25	193.0000	399.0000	0
15:06:25	192.0000	347.0000	0
15:06:25	193.0000	324.0000	0
15:06:25	193.0000	298.0000	0
15:06:25	189.0000	384.0000	0
15:06:25	185.0000	346.0000	0
15:06:25	187.0000	310.0000	0
15:06:25	191.0000	291.0000	0
15:06:25	189.0000	384.0000	0
15:06:25	185.0000	345.0000	0
15:06:25	183.0000	315.0000	0
15:06:25	190.0000	290.0000	0
15:06:25	189.0000	382.0000	0
15:06:25	191.0000	343.0000	0
15:06:25	188.0000	318.0000	0
15:06:25	193.0000	300.0000	0
15:06:25	188.0000	384.0000	0
15:06:25	191.0000	345.0000	0
15:06:25	189.0000	314.0000	0
15:06:25	196.0000	301.0000	0
15:06:25	181.0000	376.0000	0
15:06:25	189.0000	347.0000	0
15:06:25	187.0000	320.0000	0
15:06:25	194.0000	301.0000	0
15:06:25	192.0000	384.0000	0
15:06:25	190.0000	345.0000	0
15:06:25	194.0000	316.0000	0
15:06:25	199.0000	298.0000	0
15:06:25	198.0000	384.0000	0
15:06:25	192.0000	344.0000	0
15:06:25	199.0000	318.0000	0
15:06:25	202.0000	301.0000	0
15:06:25	201.0000	384.0000	0
15:06:25	194.0000	343.0000	0
15:06:25	203.0000	318.0000	0
15:06:25	208.0000	302.0000	0
15:06:25	203.0000	384.0000	0
15:06:25	195.0000	345.0000	0
15:06:25	200.0000	319.0000	0
15:06:25	207.0000	396.0000	0
15:06:25	208.0000	355.0000	0
15:06:25	204.0000	325.0000	0
15:06:25	208.0000	302.0000	0
15:06:25	208.0000	394.0000	0
15:06:25	203.0000	338.0000	0
15:06:25	203.0000	319.0000	0
15:06:25	210.0000	299.0000	0
15:06:25	215.0000	386.0000	0
15:06:25	218.0000	350.0000	0
15:06:25	211.0000	320.0000	0
15:06:25	213.0000	297.0000	0
15:06:25	207.0000	384.0000	0
15:06:25	208.0000	349.0000	0
15:06:25	206.0000	318.0000	0
15:06:25	211.0000	297.0000	0
15:06:25	210.0000	387.0000	0
15:06:25	214.0000	349.0000	0
15:06:25	211.0000	320.0000	0
15:06:25	202.0000	284.0000	0
15:06:25	219.0000	389.0000	0
15:06:25	209.0000	348.0000	0
15:06:25	218.0000	320.0000	0
15:06:25	212.0000	294.0000	0
15:06:25	222.0000	383.0000	0
15:06:25	211.0000	347.0000	0
15:06:25	208.0000	320.0000	0
15:06:25	210.0000	293.0000	0
15:06:25	208.0000	383.0000	0
15:06:25	208.0000	348.0000	0
15:06:25	208.0000	318.0000	0
15:06:25	209.0000	297.0000	0
15:06:25	208.0000	386.0000	0
15:06:25	209.0000	349.0000	0
15:06:25	208.0000	316.0000	0
15:06:25	208.0000	295.0000	0
15:06:25	192.0000	381.0000	0
15:06:25	198.0000	349.0000	0
15:06:25	205.0000	327.0000	0
15:06:25	194.0000	396.0000	0
15:06:25	199.0000	358.0000	0
15:06:25	193.0000	325.0000	0
15:06:25	198.0000	305.0000	0
15:06:25	206.0000	387.0000	0
15:06:25	208.0000	351.0000	0
15:06:25	208.0000	321.0000	0
15:06:25	213.0000	304.0000	0
15:06:25	209.0000	388.0000	0
15:06:25	218.0000	357.0000	0
15:06:25	208.0000	320.0000	0
15:06:25	208.0000	294.0000	0
15:06:25	212.0000	388.0000	0
15:06:25	221.0000	365.0000	0
15:06:25	213.0000	323.0000	0
15:06:25	209.0000	300.0000	0
15:06:25	208.0000	384.0000	0
15:06:25	209.0000	350.0000	0
15:06:25	208.0000	323.0000	0
15:06:25	208.0000	304.0000	0
15:06:25	208.0000	388.0000	0
15:06:25	206.0000	350.0000	0
15:06:25	208.0000	320.0000	0
15:06:25	206.0000	297.0000	0
15:06:25	207.0000	386.0000	0
15:06:25	205.0000	351.0000	0
15:06:25	207.0000	320.0000	0
15:06:25	206.0000	295.0000	0
15:06:25	203.0000	386.0000	0
15:06:25	201.0000	349.0000	0
15:06:25	205.0000	320.0000	0
15:06:25	199.0000	395.0000	0
15:06:25	203.0000	357.0000	0
15:06:25	205.0000	329.0000	0
15:06:25	204.0000	303.0000	0
15:06:25	202.0000	387.0000	0
15:06:25	205.0000	357.0000	0
15:06:25	199.0000	320.0000	0
15:06:25	199.0000	299.0000	0
15:06:26	198.0000	386.0000	0
15:06:26	194.0000	351.0000	0
15:06:26	195.0000	321.0000	0
15:06:26	192.0000	295.0000	0
15:06:26	195.0000	384.0000	0
15:06:26	202.0000	352.0000	0
15:06:26	193.0000	310.0000	0
15:06:26	186.0000	293.0000	0
15:06:26	197.0000	384.0000	0
15:06:26	195.0000	343.0000	0
15:06:26	193.0000	320.0000	0
15:06:26	195.0000	294.0000	0
15:06:26	195.0000	384.0000	0
15:06:26	1331.0000	635.0000	0
15:06:26	1321.0000	613.0000	0
15:06:26	1311.0000	599.0000	0
15:06:26	1276.0000	594.0000	0
15:06:26	1274.0000	585.0000	0
15:06:26	1264.0000	576.0000	0
15:06:26	1247.0000	560.0000	0
15:06:26	3685.0000	721.0000	0
15:06:26	3689.0000	814.0000	0
15:06:26	3682.0000	888.0000	16
15:06:26	3709.0000	926.0000	0
15:06:26	3702.0000	990.0000	5
15:06:26	3703.0000	1033.0000	32
15:06:26	3706.0000	1069.0000	48
15:06:26	3707.0000	1110.0000	0
15:06:26	3703.0000	1150.0000	16
15:06:26	3702.0000	1171.0000	44
15:06:26	3698.0000	1195.0000	62
15:06:26	3709.0000	1226.0000	0
15:06:26	3699.0000	1242.0000	18
15:06:26	3711.0000	1254.0000	48
15:06:26	3713.0000	1267.0000	0
15:06:26	3703.0000	1281.0000	24
15:06:26	3703.0000	1285.0000	52
15:06:26	3702.0000	1292.0000	74
15:06:26	3709.0000	1327.0000	0
15:06:26	3696.0000	1328.0000	32
15:06:26	3699.0000	1323.0000	61
15:06:26	3697.0000	1328.0000	81
15:06:26	3710.0000	1354.0000	0
15:06:26	3706.0000	1349.0000	36
15:06:26	3681.0000	1354.0000	55
15:06:26	3702.0000	1356.0000	0
15:06:26	3699.0000	1350.0000	34
15:06:26	3703.0000	1345.0000	65
15:06:26	3701.0000	1344.0000	94
15:06:26	3708.0000	1377.0000	0
15:06:26	3687.0000	1369.0000	33
15:06:26	3699.0000	1365.0000	64
15:06:26	3687.0000	1366.0000	71
15:06:26	3709.0000	1392.0000	0
15:06:26	3702.0000	1382.0000	35
15:06:26	3696.0000	1378.0000	60
15:06:26	3691.0000	1377.0000	0
15:06:26	3705.0000	1379.0000	35
15:06:26	3701.0000	1370.0000	64
15:06:26	3705.0000	1363.0000	86
15:06:26	3712.0000	1392.0000	0
15:06:26	3700.0000	1388.0000	31
15:06:26	3686.0000	1379.0000	50
15:06:26	3705.0000	1375.0000	80
15:06:26	3709.0000	1403.0000	0
15:06:26	3699.0000	1392.0000	32
15:06:26	3696.0000	1380.0000	62
15:06:26	3700.0000	1392.0000	0
15:06:26	3717.0000	1388.0000	30
15:06:26	3708.0000	1377.0000	64
15:06:26	3682.0000	1358.0000	83
15:06:26	3710.0000	1397.0000	0
15:06:26	3702.0000	1387.0000	35
15:06:26	3709.0000	1378.0000	64
15:06:26	3696.0000	1364.0000	89
15:06:26	3712.0000	1408.0000	0
15:06:26	3701.0000	1391.0000	30
15:06:26	3704.0000	1388.0000	64
15:06:26	3706.0000	1395.0000	0
15:06:26	3697.0000	1388.0000	31
15:06:26	3697.0000	1377.0000	63
15:06:26	3706.0000	1377.0000	83
15:06:26	3710.0000	1403.0000	0
15:06:26	3698.0000	1391.0000	25
15:06:26	3696.0000	1386.0000	61
15:06:26	3701.0000	1385.0000	81
15:06:26	3706.0000	1408.0000	0
15:06:26	3697.0000	1399.0000	29
15:06:26	3697.0000	1389.0000	64
15:06:26	3707.0000	1394.0000	0
15:06:26	3707.0000	1387.0000	43
15:06:26	3699.0000	1379.0000	71
15:06:26	3699.0000	1376.0000	81
15:06:26	3715.0000	1402.0000	0
15:06:26	3698.0000	1386.0000	38
15:06:26	3701.0000	1377.0000	70
15:06:26	3706.0000	1388.0000	80
15:06:26	3707.0000	1409.0000	0
15:06:26	3699.0000	1390.0000	42
15:06:26	3701.0000	1391.0000	64
15:06:26	3722.0000	1407.0000	0
15:06:26	3699.0000	1392.0000	32
15:06:26	3699.0000	1369.0000	74
15:06:26	3698.0000	1375.0000	85
15:06:26	3712.0000	1409.0000	0
15:06:26	3702.0000	1392.0000	27
15:06:26	3701.0000	1382.0000	66
15:06:26	3703.0000	1385.0000	82
15:06:26	3714.0000	1417.0000	0
15:06:26	3715.0000	1398.0000	20
15:06:26	3705.0000	1386.0000	64
15:06:26	3678.0000	1389.0000	0
15:06:26	3722.0000	1390.0000	30
15:06:26	3722.0000	1397.0000	50
15:06:26	3719.0000	1369.0000	87
15:06:26	3683.0000	1395.0000	0
15:06:26	3691.0000	1382.0000	37
15:06:26	3707.0000	1386.0000	69
15:06:26	3719.0000	1382.0000	87
15:06:26	3691.0000	1398.0000	0
15:06:26	3711.0000	1401.0000	31
15:06:26	3696.0000	1385.0000	65
15:06:26	3707.0000	1400.0000	0
15:06:26	3699.0000	1389.0000	31
15:06:26	3699.0000	1378.0000	64
15:06:26	3703.0000	1379.0000	86
15:06:26	3706.0000	1409.0000	0
15:06:26	3698.0000	1394.0000	31
15:06:26	3728.0000	1387.0000	66
15:06:26	3699.0000	1376.0000	87
15:06:26	3700.0000	1414.0000	0
15:06:26	3700.0000	1396.0000	34
15:06:26	3715.0000	1385.0000	71
15:06:26	3707.0000	1402.0000	0
15:06:26	3696.0000	1384.0000	32
15:06:26	3699.0000	1377.0000	64
15:06:27	3718.0000	1377.0000	80
15:06:27	3710.0000	1408.0000	0
15:06:27	3699.0000	1390.0000	38
15:06:27	3701.0000	1385.0000	64
15:06:27	3712.0000	1385.0000	83
15:06:27	3707.0000	1411.0000	0
15:06:27	3705.0000	1394.0000	35
15:06:27	3705.0000	1391.0000	62
15:06:27	3714.0000	1403.0000	0
15:06:27	3703.0000	1390.0000	32
15:06:27	3701.0000	1378.0000	64
15:06:27	3681.0000	1379.0000	78
15:06:27	3700.0000	1403.0000	0
15:06:27	3701.0000	1395.0000	35
15:06:27	3729.0000	1382.0000	63
15:06:27	3707.0000	1397.0000	0
15:06:27	3697.0000	1388.0000	32
15:06:27	3707.0000	1383.0000	62
15:06:27	3703.0000	1381.0000	90
15:06:27	3711.0000	1407.0000	0
15:06:27	3703.0000	1400.0000	32
15:06:27	3701.0000	1390.0000	64
15:06:27	3698.0000	1382.0000	81
15:06:27	3706.0000	1411.0000	0
15:06:27	3699.0000	1404.0000	31
15:06:27	3701.0000	1389.0000	64
15:06:27	3703.0000	1401.0000	0
15:06:27	3699.0000	1389.0000	33
15:06:27	3711.0000	1381.0000	64
15:06:27	3699.0000	1379.0000	81
15:06:27	3703.0000	1399.0000	0
15:06:27	3699.0000	1393.0000	33
15:06:27	3701.0000	1389.0000	64
15:06:27	3699.0000	1381.0000	81
15:06:27	3708.0000	1410.0000	0
15:06:27	3699.0000	1397.0000	32
15:06:27	3701.0000	1388.0000	60
15:06:27	3690.0000	1389.0000	0
15:06:27	3703.0000	1387.0000	32
15:06:27	3685.0000	1381.0000	51
15:06:27	3704.0000	1374.0000	87
15:06:27	3701.0000	1403.0000	0
15:06:27	3703.0000	1380.0000	39
15:06:27	3714.0000	1376.0000	73
15:06:27	3696.0000	1375.0000	94
15:06:27	3701.0000	1405.0000	0
15:06:27	3708.0000	1396.0000	29
15:06:27	3702.0000	1391.0000	61
15:06:27	3702.0000	1396.0000	0
15:06:27	3703.0000	1392.0000	27
15:06:27	3696.0000	1393.0000	58
15:06:27	3699.0000	1376.0000	80
15:06:27	3710.0000	1405.0000	0
15:06:27	3701.0000	1393.0000	30
15:06:27	3702.0000	1388.0000	63
15:06:27	3701.0000	1379.0000	83
15:06:27	3710.0000	1411.0000	0
15:06:27	3702.0000	1396.0000	32
15:06:27	3701.0000	1391.0000	63
15:06:27	3706.0000	1399.0000	0
15:06:27	3696.0000	1392.0000	30
15:06:27	3713.0000	1385.0000	64
15:06:27	3707.0000	1380.0000	83
15:06:27	3709.0000	1407.0000	0
15:06:27	3694.0000	1398.0000	30
15:06:27	3703.0000	1390.0000	64
15:06:27	3699.0000	1383.0000	82
15:06:27	3711.0000	1411.0000	0
15:06:27	3697.0000	1397.0000	33
15:06:27	3706.0000	1389.0000	64
15:06:27	3707.0000	1399.0000	0
15:06:27	3697.0000	1394.0000	42
15:06:27	3698.0000	1382.0000	64
15:06:27	3701.0000	1378.0000	85
15:06:27	3708.0000	1408.0000	0
15:06:27	3702.0000	1394.0000	42
15:06:27	3697.0000	1386.0000	65
15:06:27	3709.0000	1377.0000	85
15:06:27	3711.0000	1410.0000	0
15:06:27	3701.0000	1401.0000	41
15:06:27	3700.0000	1390.0000	60
15:06:27	3701.0000	1406.0000	0
15:06:27	3709.0000	1389.0000	38
15:06:27	3694.0000	1376.0000	65
15:06:27	3707.0000	1373.0000	87
15:06:27	3701.0000	1413.0000	0
15:06:27	3702.0000	1392.0000	45
15:06:27	3702.0000	1377.0000	75
15:06:27	3726.0000	1368.0000	90
15:06:27	3712.0000	1423.0000	0
15:06:27	3699.0000	1399.0000	41
15:06:27	3703.0000	1391.0000	70
15:06:27	3707.0000	1399.0000	0
15:06:27	3707.0000	1389.0000	42
15:06:27	3702.0000	1383.0000	59
15:06:27	3701.0000	1377.0000	93
15:06:27	3711.0000	1403.0000	0
15:06:27	3696.0000	1393.0000	40
15:06:27	3701.0000	1386.0000	64
15:06:27	3709.0000	1379.0000	91
15:06:27	3712.0000	1409.0000	0
15:06:27	3706.0000	1398.0000	41
15:06:27	3703.0000	1392.0000	61
15:06:27	3727.0000	1409.0000	0
15:06:27	3710.0000	1385.0000	35
15:06:27	3701.0000	1376.0000	65
15:06:27	3701.0000	1372.0000	89
15:06:27	3727.0000	1411.0000	0
15:06:27	3700.0000	1384.0000	36
15:06:27	3705.0000	1379.0000	74
15:06:27	3706.0000	1377.0000	89
15:06:27	3712.0000	1411.0000	0
15:06:27	3709.0000	1396.0000	36
15:06:27	3707.0000	1388.0000	67
15:06:27	3706.0000	1397.0000	0
15:06:27	3721.0000	1393.0000	31
15:06:27	3701.0000	1377.0000	64
15:06:27	3705.0000	1374.0000	95
15:06:27	3709.0000	1407.0000	0
15:06:27	3716.0000	1403.0000	32
15:06:27	3706.0000	1386.0000	65
15:06:27	3709.0000	1379.0000	94
15:06:27	3710.0000	1411.0000	0
15:06:27	3718.0000	1400.0000	34
15:06:27	3702.0000	1381.0000	62
15:06:27	3701.0000	1399.0000	0
15:06:27	3702.0000	1387.0000	31
15:06:27	3717.0000	1386.0000	64
15:06:27	3701.0000	1377.0000	86
15:06:27	3707.0000	1409.0000	0
15:06:27	3699.0000	1395.0000	35
15:06:28	3735.0000	1392.0000	64
15:06:28	3702.0000	1381.0000	83
15:06:28	3706.0000	1410.0000	0
15:06:28	3701.0000	1388.0000	41
15:06:28	3714.0000	1382.0000	70
15:06:28	3710.0000	1399.0000	0
15:06:28	3700.0000	1386.0000	38
15:06:28	3701.0000	1375.0000	66
15:06:28	3722.0000	1382.0000	88
15:06:28	3709.0000	1408.0000	0
15:06:28	3706.0000	1395.0000	32
15:06:28	3697.0000	1382.0000	63
15:06:28	3713.0000	1397.0000	0
15:06:28	3683.0000	1392.0000	19
15:06:28	3705.0000	1381.0000	60
15:06:28	3719.0000	1377.0000	71
15:06:28	3707.0000	1413.0000	0
15:06:28	3713.0000	1392.0000	37
15:06:28	3703.0000	1389.0000	73
15:06:28	3703.0000	1380.0000	85
15:06:28	3711.0000	1413.0000	0
15:06:28	3702.0000	1396.0000	34
15:06:28	3707.0000	1392.0000	67
15:06:28	3708.0000	1399.0000	0
15:06:28	3700.0000	1380.0000	35
15:06:28	3703.0000	1385.0000	64
15:06:28	3717.0000	1378.0000	85
15:06:28	3712.0000	1408.0000	0
15:06:28	3696.0000	1394.0000	35
15:06:28	3698.0000	1393.0000	62
15:06:28	3703.0000	1385.0000	81
15:06:28	3704.0000	1411.0000	0
15:06:28	3702.0000	1399.0000	36
15:06:28	3701.0000	1387.0000	64
15:06:28	3701.0000	1397.0000	0
15:06:28	3703.0000	1391.0000	33
15:06:28	3700.0000	1383.0000	63
15:06:28	3699.0000	1377.0000	82
15:06:28	3703.0000	1409.0000	0
15:06:28	3702.0000	1399.0000	31
15:06:28	3709.0000	1390.0000	66
15:06:28	3706.0000	1385.0000	80
15:06:28	3710.0000	1411.0000	0
15:06:28	3700.0000	1398.0000	36
15:06:28	3703.0000	1392.0000	64
15:06:28	3695.0000	1392.0000	0
15:06:28	3708.0000	1390.0000	32
15:06:28	3703.0000	1384.0000	61
15:06:28	3697.0000	1383.0000	82
15:06:28	3705.0000	1402.0000	0
15:06:28	3702.0000	1392.0000	34
15:06:28	3710.0000	1389.0000	59
15:06:28	3703.0000	1383.0000	83
15:06:28	3706.0000	1409.0000	0
15:06:28	3701.0000	1400.0000	33
15:06:28	3702.0000	1392.0000	59
15:06:28	3712.0000	1398.0000	0
15:06:28	3707.0000	1392.0000	31
15:06:28	3707.0000	1392.0000	59
15:06:28	3711.0000	1385.0000	80
15:06:28	3706.0000	1403.0000	0
15:06:28	3703.0000	1392.0000	35
15:06:28	3703.0000	1391.0000	64
15:06:28	3694.0000	1386.0000	83
15:06:28	3708.0000	1408.0000	0
15:06:28	3708.0000	1398.0000	31
15:06:28	3703.0000	1394.0000	64
15:06:28	3713.0000	1399.0000	0
15:06:28	3706.0000	1388.0000	31
15:06:28	3705.0000	1384.0000	61
15:06:28	3705.0000	1376.0000	84
15:06:28	3703.0000	1402.0000	0
15:06:28	3708.0000	1398.0000	36
15:06:28	3711.0000	1386.0000	63
15:06:28	3708.0000	1377.0000	86
15:06:28	3709.0000	1413.0000	0
15:06:28	3707.0000	1397.0000	38
15:06:28	3711.0000	1386.0000	70
15:06:28	3701.0000	1401.0000	0
15:06:28	3710.0000	1384.0000	38
15:06:28	3706.0000	1376.0000	64
15:06:28	3712.0000	1375.0000	93
15:06:28	3702.0000	1406.0000	0
15:06:28	3706.0000	1395.0000	36
15:06:28	3727.0000	1397.0000	64
15:06:28	3709.0000	1403.0000	0
15:06:28	3725.0000	1407.0000	33
15:06:28	241.0000	590.0000	0
15:06:28	229.0000	527.0000	0
15:06:28	230.0000	470.0000	0
15:06:28	222.0000	470.0000	0
15:06:28	230.0000	431.0000	0
15:06:28	231.0000	391.0000	0
15:06:28	607.0000	592.0000	0
15:06:28	606.0000	553.0000	0
15:06:28	607.0000	509.0000	0
15:06:28	602.0000	479.0000	0
15:06:28	570.0000	496.0000	0
15:06:28	566.0000	464.0000	0
15:06:28	563.0000	437.0000	0
15:06:28	529.0000	468.0000	0
15:06:28	528.0000	432.0000	0
15:06:28	528.0000	405.0000	0
15:06:28	529.0000	384.0000	0
15:06:28	511.0000	432.0000	0
15:06:28	511.0000	414.0000	0
15:06:28	511.0000	399.0000	0
15:06:28	527.0000	377.0000	0
15:06:28	496.0000	442.0000	0
15:06:28	496.0000	400.0000	0
15:06:28	493.0000	383.0000	0
15:06:28	493.0000	357.0000	0
15:06:28	465.0000	438.0000	0
15:06:28	465.0000	398.0000	0
15:06:28	466.0000	368.0000	0
15:06:28	464.0000	351.0000	0
15:06:28	439.0000	432.0000	0
15:06:28	436.0000	395.0000	0
15:06:28	435.0000	368.0000	0
15:06:28	432.0000	349.0000	0
15:06:28	418.0000	431.0000	0
15:06:28	415.0000	386.0000	0
15:06:28	413.0000	363.0000	0
15:06:28	414.0000	341.0000	0
15:06:28	395.0000	427.0000	0
15:06:28	395.0000	384.0000	0
15:06:28	395.0000	357.0000	0
15:06:28	394.0000	334.0000	0
15:06:28	374.0000	416.0000	0
15:06:28	368.0000	383.0000	0
15:06:28	368.0000	354.0000	0
15:06:28	384.0000	432.0000	0
15:06:28	378.0000	395.0000	0
15:06:28	377.0000	359.0000	0
15:06:28	377.0000	336.0000	0
15:06:28	362.0000	415.0000	0
15:06:28	362.0000	390.0000	0
15:06:28	358.0000	354.0000	0
15:06:28	358.0000	330.0000	0
15:06:28	347.0000	417.0000	0
15:06:28	349.0000	377.0000	0
15:06:28	348.0000	351.0000	0
15:06:28	347.0000	329.0000	0
15:06:28	336.0000	406.0000	0
15:06:28	336.0000	369.0000	0
15:06:28	336.0000	349.0000	0
15:06:28	336.0000	323.0000	0
15:06:28	322.0000	405.0000	0
15:06:28	321.0000	368.0000	0
15:06:28	311.0000	341.0000	0
15:06:28	321.0000	320.0000	0
15:06:28	302.0000	402.0000	0
15:06:28	303.0000	368.0000	0
15:06:28	304.0000	342.0000	0
15:06:28	302.0000	307.0000	0
15:06:28	287.0000	400.0000	0
15:06:28	284.0000	366.0000	0
15:06:28	283.0000	336.0000	0
15:06:28	277.0000	310.0000	0
15:06:28	293.0000	400.0000	0
15:06:28	291.0000	367.0000	0
15:06:28	290.0000	336.0000	0
15:06:28	288.0000	313.0000	0
15:06:28	269.0000	400.0000	0
15:06:28	270.0000	363.0000	0
15:06:28	270.0000	334.0000	0
15:06:28	270.0000	309.0000	0
15:06:28	265.0000	393.0000	0
15:06:28	270.0000	363.0000	0
15:06:28	269.0000	336.0000	0
15:06:28	249.0000	397.0000	0
15:06:28	249.0000	368.0000	0
15:06:28	253.0000	336.0000	0
15:06:28	250.0000	305.0000	0
15:06:28	229.0000	386.0000	0
15:06:28	234.0000	357.0000	0
15:06:28	233.0000	330.0000	0
15:06:28	234.0000	306.0000	0
15:06:28	221.0000	390.0000	0
15:06:28	219.0000	353.0000	0
15:06:28	215.0000	323.0000	0
15:06:28	217.0000	297.0000	0
15:06:28	208.0000	387.0000	0
15:06:28	208.0000	350.0000	0
15:06:28	208.0000	320.0000	0
15:06:28	208.0000	297.0000	0
15:06:28	208.0000	386.0000	0
15:06:28	204.0000	346.0000	0
15:06:28	204.0000	320.0000	0
15:06:28	207.0000	293.0000	0
15:06:28	203.0000	383.0000	0
15:06:28	201.0000	350.0000	0
15:06:28	201.0000	311.0000	0
15:06:28	199.0000	296.0000	0
15:06:28	194.0000	384.0000	0
15:06:28	192.0000	343.0000	0
15:06:28	192.0000	314.0000	0
15:06:28	194.0000	289.0000	0
15:06:28	190.0000	384.0000	0
15:06:28	187.0000	346.0000	0
15:06:28	185.0000	316.0000	0
15:06:28	187.0000	290.0000	0
15:06:28	182.0000	380.0000	0
15:06:28	179.0000	346.0000	0
15:06:28	179.0000	316.0000	0
15:06:28	176.0000	395.0000	0
15:06:28	187.0000	355.0000	0
15:06:28	176.0000	321.0000	0
15:06:28	176.0000	286.0000	0
15:06:28	176.0000	384.0000	0
15:06:28	173.0000	345.0000	0
15:06:28	176.0000	317.0000	0
15:06:28	166.0000	279.0000	0
15:06:28	176.0000	382.0000	0
15:06:28	176.0000	335.0000	0
15:06:28	182.0000	317.0000	0
15:06:28	183.0000	287.0000	0
15:06:28	197.0000	383.0000	0
15:06:28	194.0000	347.0000	0
15:06:28	194.0000	319.0000	0
15:06:28	195.0000	289.0000	0
15:06:28	189.0000	387.0000	0
15:06:29	187.0000	348.0000	0
15:06:29	188.0000	320.0000	0
15:06:29	189.0000	290.0000	0
15:06:29	178.0000	386.0000	0
15:06:29	178.0000	343.0000	0
15:06:29	177.0000	319.0000	0
15:06:29	176.0000	280.0000	0
15:06:29	173.0000	381.0000	0
15:06:29	175.0000	335.0000	0
15:06:29	174.0000	315.0000	0
15:06:29	176.0000	289.0000	0
15:06:29	170.0000	384.0000	0
15:06:29	167.0000	341.0000	0
15:06:29	174.0000	313.0000	0
15:06:29	167.0000	286.0000	0
15:06:29	167.0000	384.0000	0
15:06:29	171.0000	343.0000	0
15:06:29	172.0000	314.0000	0
15:06:29	169.0000	275.0000	0
15:06:29	170.0000	382.0000	0
15:06:29	171.0000	343.0000	0
15:06:29	174.0000	313.0000	0
15:06:29	183.0000	393.0000	0
15:06:29	179.0000	353.0000	0
15:06:29	181.0000	323.0000	0
15:06:29	183.0000	295.0000	0
15:06:29	182.0000	385.0000	0
15:06:29	180.0000	347.0000	0
15:06:29	179.0000	318.0000	0
15:06:29	180.0000	293.0000	0
15:06:29	179.0000	384.0000	0
15:06:29	176.0000	346.0000	0
15:06:29	176.0000	315.0000	0
15:06:29	176.0000	287.0000	0
15:06:29	177.0000	384.0000	0
15:06:29	174.0000	342.0000	0
15:06:29	176.0000	315.0000	0
15:06:29	167.0000	289.0000	0
15:06:29	176.0000	381.0000	0
15:06:29	173.0000	342.0000	0
15:06:29	175.0000	314.0000	0
15:06:29	171.0000	287.0000	0
15:06:29	179.0000	378.0000	0
15:06:29	178.0000	343.0000	0
15:06:29	179.0000	315.0000	0
15:06:29	181.0000	290.0000	0
15:06:29	183.0000	383.0000	0
15:06:29	182.0000	346.0000	0
15:06:29	180.0000	315.0000	0
15:06:29	179.0000	288.0000	0
15:06:29	185.0000	384.0000	0
15:06:29	186.0000	347.0000	0
15:06:29	184.0000	316.0000	0
15:06:29	187.0000	290.0000	0
15:06:29	181.0000	379.0000	0
15:06:29	182.0000	347.0000	0
15:06:29	181.0000	306.0000	0
15:06:29	186.0000	294.0000	0
15:06:29	182.0000	382.0000	0
15:06:29	183.0000	345.0000	0
15:06:29	185.0000	313.0000	0
15:06:29	177.0000	394.0000	0
15:06:29	178.0000	353.0000	0
15:06:29	179.0000	322.0000	0
15:06:29	176.0000	295.0000	0
15:06:29	190.0000	385.0000	0
15:06:29	187.0000	348.0000	0
15:06:29	182.0000	316.0000	0
15:06:29	193.0000	289.0000	0
15:06:29	182.0000	385.0000	0
15:06:29	180.0000	342.0000	0
15:06:29	179.0000	315.0000	0
15:06:29	181.0000	289.0000	0
15:06:29	190.0000	383.0000	0
15:06:29	192.0000	345.0000	0
15:06:29	189.0000	315.0000	0
15:06:29	187.0000	288.0000	0
15:06:29	195.0000	383.0000	0
15:06:29	193.0000	345.0000	0
15:06:29	197.0000	318.0000	0
15:06:29	195.0000	290.0000	0
15:06:29	207.0000	384.0000	0
15:06:29	194.0000	336.0000	0
15:06:29	197.0000	319.0000	0
15:06:29	189.0000	277.0000	0
15:06:29	192.0000	383.0000	0
15:06:29	193.0000	346.0000	0
15:06:29	191.0000	318.0000	0
15:06:29	194.0000	291.0000	0
15:06:29	195.0000	384.0000	0
15:06:29	199.0000	347.0000	0
15:06:29	194.0000	319.0000	0
15:06:29	199.0000	394.0000	0
15:06:29	199.0000	365.0000	0
15:06:29	195.0000	315.0000	0
15:06:29	194.0000	299.0000	0
15:06:29	201.0000	390.0000	0
15:06:29	198.0000	349.0000	0
15:06:29	195.0000	321.0000	0
15:06:29	192.0000	294.0000	0
15:06:29	193.0000	378.0000	0
15:06:29	198.0000	347.0000	0
15:06:29	201.0000	320.0000	0
15:06:29	208.0000	294.0000	0
15:06:29	206.0000	387.0000	0
15:06:29	197.0000	348.0000	0
15:06:29	203.0000	320.0000	0
15:06:29	206.0000	302.0000	0
15:06:29	199.0000	384.0000	0
15:06:29	192.0000	347.0000	0
15:06:29	195.0000	317.0000	0
15:06:29	206.0000	301.0000	0
15:06:29	197.0000	385.0000	0
15:06:29	191.0000	349.0000	0
15:06:29	193.0000	317.0000	0
15:06:29	205.0000	294.0000	0
15:06:29	193.0000	385.0000	0
15:06:29	189.0000	346.0000	0
15:06:29	192.0000	320.0000	0
15:06:29	194.0000	290.0000	0
15:06:29	194.0000	385.0000	0
15:06:29	190.0000	345.0000	0
