"sep=	"
Shimmer_Timestamp	Shimmer_EMG_ENV	Shimmer_EMG_RAW	Shimmer_EMG_REF
hh:mm:ss	unit	unit	unit
15:42:55	1101.0000	396.0000	18.0000
15:42:55	1091.0000	388.0000	20.0000
15:42:55	1088.0000	405.0000	6.0000
15:42:55	1080.0000	387.0000	19.0000
15:42:55	1086.0000	384.0000	16.0000
15:42:55	1072.0000	381.0000	16.0000
15:42:55	1068.0000	383.0000	16.0000
15:42:55	1063.0000	381.0000	16.0000
15:42:55	1056.0000	371.0000	30.0000
15:42:55	1051.0000	376.0000	16.0000
15:42:55	1047.0000	377.0000	27.0000
15:42:55	1040.0000	374.0000	5.0000
15:42:55	1042.0000	377.0000	15.0000
15:42:55	1010.0000	391.0000	0.0000
15:42:55	1012.0000	389.0000	0.0000
15:42:55	1006.0000	387.0000	0.0000
15:42:55	1003.0000	384.0000	0.0000
15:42:55	998.0000	381.0000	1.0000
15:42:55	992.0000	378.0000	0.0000
15:42:55	990.0000	376.0000	3.0000
15:42:55	985.0000	369.0000	3.0000
15:42:55	978.0000	365.0000	6.0000
15:42:55	978.0000	354.0000	16.0000
15:42:55	975.0000	362.0000	9.0000
15:42:55	971.0000	358.0000	6.0000
15:42:55	964.0000	358.0000	6.0000
15:42:55	962.0000	358.0000	9.0000
15:42:55	947.0000	358.0000	10.0000
15:42:55	958.0000	355.0000	10.0000
15:42:55	949.0000	350.0000	6.0000
15:42:55	944.0000	348.0000	6.0000
15:42:55	944.0000	356.0000	4.0000
15:42:55	935.0000	346.0000	4.0000
15:42:55	931.0000	343.0000	4.0000
15:42:55	923.0000	345.0000	3.0000
15:42:55	919.0000	340.0000	15.0000
15:42:55	914.0000	344.0000	0.0000
15:42:55	912.0000	334.0000	3.0000
15:42:55	907.0000	331.0000	5.0000
15:42:55	902.0000	1174.0000	365.0000
15:42:55	62.0000	1171.0000	374.0000
15:42:55	42.0000	1162.0000	378.0000
15:42:55	48.0000	1157.0000	382.0000
15:42:55	49.0000	1153.0000	387.0000
15:42:55	39.0000	1141.0000	379.0000
15:42:55	44.0000	1135.0000	398.0000
15:42:55	23.0000	1129.0000	388.0000
15:42:55	48.0000	1120.0000	386.0000
15:42:55	27.0000	1119.0000	391.0000
15:42:55	23.0000	1111.0000	392.0000
15:42:55	22.0000	1104.0000	391.0000
15:42:55	22.0000	334.0000	12.0000
15:42:55	896.0000	332.0000	5.0000
15:42:55	895.0000	333.0000	1.0000
15:42:55	888.0000	333.0000	1.0000
15:42:55	884.0000	333.0000	9.0000
15:42:55	883.0000	333.0000	0.0000
15:42:55	876.0000	331.0000	0.0000
15:42:55	875.0000	328.0000	5.0000
15:42:55	866.0000	325.0000	0.0000
15:42:55	863.0000	318.0000	16.0000
15:42:55	870.0000	319.0000	6.0000
15:42:55	855.0000	319.0000	5.0000
15:42:55	850.0000	315.0000	4.0000
15:42:55	848.0000	310.0000	5.0000
15:42:55	848.0000	309.0000	4.0000
15:42:55	840.0000	315.0000	6.0000
15:42:55	834.0000	310.0000	7.0000
15:42:55	489.0000	493.0000	0.0000
15:42:55	501.0000	464.0000	0.0000
15:42:55	485.0000	414.0000	0.0000
15:42:55	483.0000	403.0000	0.0000
15:42:55	482.0000	367.0000	0.0000
15:42:55	478.0000	347.0000	0.0000
15:42:55	474.0000	317.0000	0.0000
15:42:55	476.0000	306.0000	0.0000
15:42:55	477.0000	293.0000	0.0000
15:42:55	473.0000	279.0000	0.0000
15:42:55	458.0000	255.0000	0.0000
15:42:55	471.0000	265.0000	0.0000
15:42:55	463.0000	265.0000	0.0000
15:42:55	471.0000	262.0000	0.0000
15:42:55	464.0000	241.0000	0.0000
15:42:55	464.0000	245.0000	0.0000
15:42:55	460.0000	216.0000	0.0000
15:42:55	458.0000	222.0000	0.0000
15:42:55	456.0000	211.0000	0.0000
15:42:55	454.0000	207.0000	0.0000
15:42:55	445.0000	194.0000	0.0000
15:42:55	449.0000	196.0000	0.0000
15:42:55	446.0000	202.0000	0.0000
15:42:55	446.0000	199.0000	0.0000
15:42:55	441.0000	187.0000	0.0000
15:42:55	441.0000	195.0000	0.0000
15:42:55	439.0000	191.0000	0.0000
15:42:55	437.0000	192.0000	0.0000
15:42:55	422.0000	175.0000	0.0000
15:42:55	435.0000	177.0000	0.0000
15:42:55	433.0000	186.0000	0.0000
15:42:55	437.0000	184.0000	0.0000
15:42:55	432.0000	194.0000	0.0000
15:42:55	432.0000	178.0000	0.0000
15:42:55	432.0000	186.0000	0.0000
15:42:55	427.0000	177.0000	0.0000
15:42:55	422.0000	170.0000	0.0000
15:42:55	419.0000	169.0000	0.0000
15:42:55	423.0000	187.0000	0.0000
15:42:55	416.0000	176.0000	0.0000
15:42:55	421.0000	183.0000	0.0000
15:42:55	418.0000	174.0000	0.0000
15:42:55	415.0000	175.0000	0.0000
15:42:55	411.0000	176.0000	0.0000
15:42:55	407.0000	172.0000	0.0000
15:42:55	402.0000	155.0000	0.0000
15:42:55	403.0000	173.0000	0.0000
15:42:55	400.0000	166.0000	0.0000
15:42:55	402.0000	161.0000	0.0000
15:42:55	402.0000	156.0000	0.0000
15:42:55	399.0000	167.0000	0.0000
15:42:55	404.0000	176.0000	0.0000
15:42:55	398.0000	165.0000	0.0000
15:42:55	401.0000	175.0000	0.0000
15:42:55	394.0000	151.0000	0.0000
15:42:55	398.0000	165.0000	0.0000
15:42:55	395.0000	163.0000	0.0000
15:42:55	393.0000	164.0000	0.0000
15:42:55	385.0000	148.0000	0.0000
15:42:55	394.0000	160.0000	0.0000
15:42:55	387.0000	160.0000	0.0000
15:42:55	387.0000	165.0000	0.0000
15:42:55	389.0000	148.0000	0.0000
15:42:55	387.0000	160.0000	0.0000
15:42:55	388.0000	168.0000	0.0000
15:42:55	384.0000	162.0000	0.0000
15:42:55	381.0000	158.0000	0.0000
15:42:55	380.0000	157.0000	0.0000
15:42:55	379.0000	169.0000	0.0000
15:42:55	378.0000	156.0000	0.0000
15:42:55	375.0000	157.0000	0.0000
15:42:55	370.0000	147.0000	0.0000
15:42:55	375.0000	154.0000	0.0000
15:42:55	368.0000	155.0000	0.0000
15:42:55	374.0000	151.0000	0.0000
15:42:55	355.0000	142.0000	0.0000
15:42:55	368.0000	147.0000	0.0000
15:42:55	368.0000	151.0000	0.0000
15:42:55	367.0000	155.0000	0.0000
15:42:55	368.0000	159.0000	0.0000
15:42:55	363.0000	150.0000	0.0000
15:42:55	366.0000	160.0000	0.0000
15:42:55	359.0000	151.0000	0.0000
15:42:55	352.0000	150.0000	0.0000
15:42:55	356.0000	146.0000	0.0000
15:42:55	353.0000	146.0000	0.0000
15:42:55	352.0000	146.0000	0.0000
15:42:55	353.0000	145.0000	0.0000
15:42:55	347.0000	141.0000	0.0000
15:42:55	378.0000	149.0000	0.0000
15:42:55	344.0000	144.0000	0.0000
15:42:55	346.0000	145.0000	0.0000
15:42:55	347.0000	153.0000	0.0000
15:42:55	342.0000	135.0000	0.0000
15:42:55	352.0000	152.0000	0.0000
15:42:55	339.0000	145.0000	0.0000
15:42:55	347.0000	154.0000	0.0000
15:42:55	353.0000	144.0000	0.0000
15:42:55	336.0000	143.0000	0.0000
15:42:55	336.0000	145.0000	0.0000
15:42:55	336.0000	138.0000	0.0000
15:42:55	336.0000	141.0000	0.0000
15:42:55	335.0000	141.0000	0.0000
15:42:55	326.0000	141.0000	0.0000
15:42:55	334.0000	141.0000	0.0000
15:42:55	332.0000	128.0000	0.0000
15:42:55	330.0000	130.0000	0.0000
15:42:55	332.0000	146.0000	0.0000
15:42:55	326.0000	139.0000	0.0000
15:42:55	330.0000	144.0000	0.0000
15:42:55	321.0000	128.0000	0.0000
15:42:55	321.0000	143.0000	0.0000
15:42:55	320.0000	137.0000	0.0000
15:42:55	320.0000	139.0000	0.0000
15:42:55	320.0000	124.0000	0.0000
15:42:55	323.0000	137.0000	0.0000
15:42:55	315.0000	135.0000	0.0000
15:42:55	322.0000	135.0000	0.0000
15:42:55	319.0000	123.0000	0.0000
15:42:55	317.0000	136.0000	0.0000
15:42:55	319.0000	143.0000	0.0000
15:42:55	316.0000	135.0000	0.0000
15:42:55	320.0000	144.0000	0.0000
15:42:55	316.0000	133.0000	0.0000
15:42:55	313.0000	146.0000	0.0000
15:42:55	314.0000	136.0000	0.0000
15:42:55	309.0000	130.0000	0.0000
15:42:55	306.0000	130.0000	0.0000
15:42:55	307.0000	133.0000	0.0000
15:42:55	304.0000	129.0000	0.0000
15:42:55	311.0000	135.0000	0.0000
15:42:55	286.0000	118.0000	0.0000
15:42:55	308.0000	122.0000	0.0000
15:42:55	309.0000	133.0000	0.0000
15:42:55	304.0000	132.0000	0.0000
15:42:55	304.0000	141.0000	0.0000
15:42:55	303.0000	117.0000	0.0000
15:42:55	307.0000	140.0000	0.0000
15:42:55	293.0000	123.0000	0.0000
15:42:55	302.0000	141.0000	0.0000
15:42:55	306.0000	114.0000	0.0000
15:42:55	296.0000	128.0000	0.0000
15:42:55	296.0000	128.0000	0.0000
15:42:55	297.0000	126.0000	0.0000
15:42:55	298.0000	129.0000	0.0000
15:42:55	294.0000	126.0000	0.0000
15:42:55	286.0000	125.0000	0.0000
15:42:55	292.0000	127.0000	0.0000
15:42:55	292.0000	128.0000	0.0000
15:42:55	286.0000	128.0000	0.0000
15:42:55	297.0000	135.0000	0.0000
15:42:55	291.0000	127.0000	0.0000
15:42:55	295.0000	132.0000	0.0000
15:42:55	287.0000	112.0000	0.0000
15:42:55	286.0000	135.0000	0.0000
15:42:55	288.0000	122.0000	0.0000
15:42:55	285.0000	126.0000	0.0000
15:42:55	283.0000	113.0000	0.0000
15:42:55	287.0000	127.0000	0.0000
15:42:55	278.0000	123.0000	0.0000
15:42:55	288.0000	127.0000	0.0000
15:42:55	283.0000	114.0000	0.0000
15:42:55	283.0000	113.0000	0.0000
15:42:55	274.0000	133.0000	0.0000
15:42:55	284.0000	139.0000	0.0000
15:42:55	279.0000	128.0000	0.0000
15:42:55	274.0000	137.0000	0.0000
15:42:55	272.0000	125.0000	0.0000
15:42:55	265.0000	125.0000	0.0000
15:42:55	272.0000	128.0000	0.0000
15:42:55	272.0000	124.0000	0.0000
15:42:55	269.0000	122.0000	0.0000
15:42:55	272.0000	124.0000	0.0000
15:42:55	254.0000	112.0000	0.0000
15:42:55	272.0000	112.0000	0.0000
15:42:55	275.0000	125.0000	0.0000
15:42:55	272.0000	125.0000	0.0000
15:42:55	277.0000	130.0000	0.0000
15:42:55	270.0000	110.0000	0.0000
15:42:55	272.0000	131.0000	0.0000
15:42:55	269.0000	124.0000	0.0000
15:42:55	271.0000	128.0000	0.0000
15:42:55	271.0000	123.0000	0.0000
15:42:55	267.0000	118.0000	0.0000
15:42:55	264.0000	116.0000	0.0000
15:42:55	265.0000	123.0000	0.0000
15:42:55	256.0000	108.0000	0.0000
15:42:55	289.0000	122.0000	0.0000
15:42:55	266.0000	118.0000	0.0000
15:42:55	264.0000	116.0000	0.0000
15:42:55	260.0000	127.0000	0.0000
15:42:55	261.0000	117.0000	0.0000
15:42:55	272.0000	128.0000	0.0000
15:42:55	262.0000	114.0000	0.0000
15:42:55	265.0000	115.0000	0.0000
15:42:55	261.0000	115.0000	0.0000
15:42:55	262.0000	117.0000	0.0000
15:42:55	261.0000	126.0000	0.0000
15:42:55	259.0000	117.0000	0.0000
15:42:55	259.0000	108.0000	0.0000
15:42:55	282.0000	119.0000	0.0000
15:42:55	251.0000	115.0000	0.0000
15:42:55	261.0000	118.0000	0.0000
15:42:55	259.0000	106.0000	0.0000
15:42:55	257.0000	107.0000	0.0000
15:42:55	260.0000	126.0000	0.0000
15:42:55	254.0000	118.0000	0.0000
15:42:55	262.0000	123.0000	0.0000
15:42:55	256.0000	115.0000	0.0000
15:42:55	256.0000	113.0000	0.0000
15:42:55	255.0000	113.0000	0.0000
15:42:55	258.0000	113.0000	0.0000
15:42:55	253.0000	105.0000	0.0000
15:42:55	262.0000	116.0000	0.0000
15:42:55	249.0000	112.0000	0.0000
15:42:55	253.0000	115.0000	0.0000
15:42:55	254.0000	103.0000	0.0000
15:42:55	254.0000	105.0000	0.0000
15:42:55	257.0000	124.0000	0.0000
15:42:55	252.0000	115.0000	0.0000
15:42:55	256.0000	123.0000	0.0000
15:42:55	254.0000	112.0000	0.0000
15:42:55	249.0000	121.0000	0.0000
15:42:55	248.0000	112.0000	0.0000
15:42:55	250.0000	112.0000	0.0000
15:42:55	247.0000	112.0000	0.0000
15:42:55	250.0000	112.0000	0.0000
15:42:55	246.0000	116.0000	0.0000
15:42:55	246.0000	115.0000	0.0000
15:42:55	243.0000	103.0000	0.0000
15:42:55	252.0000	119.0000	0.0000
15:42:55	241.0000	113.0000	0.0000
15:42:55	242.0000	110.0000	0.0000
15:42:55	231.0000	103.0000	0.0000
15:42:55	243.0000	105.0000	0.0000
15:42:55	245.0000	112.0000	0.0000
15:42:55	240.0000	113.0000	0.0000
15:42:55	244.0000	118.0000	0.0000
15:42:55	240.0000	112.0000	0.0000
15:42:55	240.0000	118.0000	0.0000
15:42:55	240.0000	112.0000	0.0000
15:42:55	240.0000	114.0000	0.0000
15:42:55	238.0000	109.0000	0.0000
15:42:55	239.0000	111.0000	0.0000
15:42:55	237.0000	109.0000	0.0000
15:42:55	240.0000	110.0000	0.0000
15:42:55	237.0000	112.0000	0.0000
15:42:55	234.0000	112.0000	0.0000
15:42:55	237.0000	110.0000	0.0000
15:42:55	233.0000	111.0000	0.0000
15:42:55	221.0000	111.0000	0.0000
15:42:55	235.0000	110.0000	0.0000
15:42:55	248.0000	115.0000	0.0000
15:42:55	236.0000	110.0000	0.0000
15:42:55	234.0000	109.0000	0.0000
15:42:55	234.0000	109.0000	0.0000
15:42:55	233.0000	109.0000	0.0000
15:42:55	243.0000	110.0000	0.0000
15:42:55	234.0000	112.0000	0.0000
15:42:55	233.0000	110.0000	0.0000
15:42:55	229.0000	108.0000	0.0000
15:42:55	226.0000	109.0000	0.0000
15:42:55	231.0000	108.0000	0.0000
15:42:55	232.0000	110.0000	0.0000
15:42:55	228.0000	109.0000	0.0000
15:42:55	234.0000	116.0000	0.0000
15:42:55	226.0000	110.0000	0.0000
15:42:55	228.0000	107.0000	0.0000
15:42:55	226.0000	106.0000	0.0000
15:42:55	226.0000	115.0000	0.0000
15:42:55	226.0000	109.0000	0.0000
15:42:55	226.0000	103.0000	0.0000
15:42:55	227.0000	98.0000	0.0000
15:42:55	225.0000	107.0000	0.0000
15:42:55	221.0000	104.0000	0.0000
15:42:55	224.0000	106.0000	0.0000
15:42:55	215.0000	105.0000	0.0000
15:42:55	224.0000	103.0000	0.0000
15:42:55	225.0000	110.0000	0.0000
15:42:55	220.0000	107.0000	0.0000
15:42:55	221.0000	102.0000	0.0000
15:42:55	225.0000	105.0000	0.0000
15:42:55	224.0000	114.0000	0.0000
15:42:55	226.0000	110.0000	0.0000
15:42:55	225.0000	105.0000	0.0000
15:42:55	225.0000	105.0000	0.0000
15:42:55	225.0000	106.0000	0.0000
15:42:55	225.0000	112.0000	0.0000
15:42:55	225.0000	106.0000	0.0000
15:42:55	227.0000	105.0000	0.0000
15:42:55	230.0000	107.0000	0.0000
15:42:55	218.0000	107.0000	0.0000
15:42:55	228.0000	110.0000	0.0000
15:42:55	230.0000	108.0000	0.0000
15:42:55	229.0000	107.0000	0.0000
15:42:55	240.0000	109.0000	0.0000
15:42:55	230.0000	106.0000	0.0000
15:42:55	230.0000	107.0000	0.0000
15:42:55	228.0000	109.0000	0.0000
15:42:55	230.0000	107.0000	0.0000
15:42:55	227.0000	107.0000	0.0000
15:42:55	229.0000	100.0000	0.0000
15:42:55	229.0000	105.0000	0.0000
15:42:55	229.0000	107.0000	0.0000
15:42:55	222.0000	106.0000	0.0000
15:42:55	227.0000	106.0000	0.0000
15:42:55	216.0000	106.0000	0.0000
15:42:55	230.0000	109.0000	0.0000
15:42:55	234.0000	114.0000	0.0000
15:42:55	225.0000	107.0000	0.0000
15:42:55	230.0000	106.0000	0.0000
15:42:55	227.0000	107.0000	0.0000
15:42:55	227.0000	114.0000	0.0000
15:42:55	225.0000	109.0000	0.0000
15:42:55	225.0000	109.0000	0.0000
15:42:55	227.0000	106.0000	0.0000
15:42:55	225.0000	106.0000	0.0000
15:42:55	222.0000	106.0000	0.0000
15:42:55	225.0000	103.0000	0.0000
15:42:55	227.0000	108.0000	0.0000
15:42:55	226.0000	107.0000	0.0000
15:42:55	213.0000	107.0000	0.0000
15:42:55	225.0000	106.0000	0.0000
15:42:55	223.0000	105.0000	0.0000
15:42:55	223.0000	111.0000	0.0000
15:42:55	234.0000	112.0000	0.0000
15:42:55	219.0000	102.0000	0.0000
15:42:55	221.0000	103.0000	0.0000
15:42:55	221.0000	103.0000	0.0000
15:42:55	223.0000	103.0000	0.0000
15:42:55	219.0000	110.0000	0.0000
15:42:55	222.0000	108.0000	0.0000
15:42:55	209.0000	91.0000	0.0000
15:42:55	226.0000	107.0000	0.0000
15:42:55	216.0000	103.0000	0.0000
15:42:55	218.0000	103.0000	0.0000
15:42:55	213.0000	103.0000	0.0000
15:42:55	220.0000	94.0000	0.0000
15:42:55	223.0000	112.0000	0.0000
15:42:55	217.0000	103.0000	0.0000
15:42:55	221.0000	102.0000	0.0000
15:42:55	216.0000	103.0000	0.0000
15:42:55	218.0000	102.0000	0.0000
15:42:55	215.0000	101.0000	0.0000
15:42:55	215.0000	101.0000	0.0000
15:42:55	215.0000	102.0000	0.0000
15:42:55	221.0000	98.0000	0.0000
15:42:55	212.0000	98.0000	0.0000
15:42:55	215.0000	101.0000	0.0000
15:42:55	213.0000	101.0000	0.0000
15:42:55	213.0000	102.0000	0.0000
15:42:55	218.0000	112.0000	0.0000
15:42:55	212.0000	99.0000	0.0000
15:42:55	211.0000	100.0000	0.0000
15:42:55	213.0000	102.0000	0.0000
15:42:55	211.0000	109.0000	0.0000
15:42:55	210.0000	100.0000	0.0000
15:42:55	210.0000	101.0000	0.0000
15:42:55	210.0000	102.0000	0.0000
15:42:55	213.0000	103.0000	0.0000
15:42:55	210.0000	97.0000	0.0000
15:42:55	210.0000	95.0000	0.0000
15:42:55	208.0000	102.0000	0.0000
15:42:55	208.0000	102.0000	0.0000
15:42:55	209.0000	111.0000	0.0000
15:42:55	205.0000	99.0000	0.0000
15:42:55	208.0000	101.0000	0.0000
15:42:55	208.0000	99.0000	0.0000
15:42:55	198.0000	370.0000	0.0000
15:42:55	198.0000	346.0000	0.0000
15:42:55	204.0000	319.0000	0.0000
15:42:55	198.0000	285.0000	0.0000
15:42:55	192.0000	249.0000	0.0000
15:42:55	206.0000	231.0000	0.0000
15:42:55	192.0000	217.0000	0.0000
15:42:55	199.0000	206.0000	0.0000
15:42:55	199.0000	176.0000	0.0000
15:42:55	206.0000	178.0000	0.0000
15:42:55	201.0000	169.0000	0.0000
15:42:55	197.0000	153.0000	0.0000
15:42:55	202.0000	190.0000	0.0000
15:42:55	197.0000	176.0000	0.0000
15:42:55	194.0000	167.0000	0.0000
15:42:55	198.0000	162.0000	0.0000
15:42:55	195.0000	139.0000	0.0000
15:42:55	194.0000	145.0000	0.0000
15:42:55	197.0000	134.0000	0.0000
15:42:55	195.0000	133.0000	0.0000
15:42:55	193.0000	110.0000	0.0000
15:42:55	194.0000	117.0000	0.0000
15:42:55	192.0000	115.0000	0.0000
15:42:55	195.0000	112.0000	0.0000
15:42:55	174.0000	169.0000	0.0000
15:42:55	198.0000	175.0000	0.0000
15:42:55	194.0000	161.0000	0.0000
15:42:55	192.0000	150.0000	0.0000
15:42:55	194.0000	148.0000	0.0000
15:42:55	191.0000	126.0000	0.0000
15:42:55	198.0000	139.0000	0.0000
15:42:55	192.0000	125.0000	0.0000
15:42:55	191.0000	129.0000	0.0000
15:42:55	189.0000	112.0000	0.0000
15:42:55	192.0000	113.0000	0.0000
15:42:55	189.0000	107.0000	0.0000
15:42:55	189.0000	141.0000	0.0000
15:42:55	195.0000	144.0000	0.0000
15:42:55	188.0000	115.0000	0.0000
15:42:55	189.0000	134.0000	0.0000
15:42:55	187.0000	117.0000	0.0000
15:42:55	189.0000	116.0000	0.0000
15:42:55	186.0000	108.0000	0.0000
15:42:55	187.0000	111.0000	0.0000
15:42:55	183.0000	109.0000	0.0000
15:42:55	187.0000	111.0000	0.0000
15:42:55	173.0000	92.0000	0.0000
15:42:55	208.0000	103.0000	0.0000
15:42:55	189.0000	101.0000	0.0000
15:42:55	188.0000	102.0000	0.0000
15:42:55	192.0000	108.0000	0.0000
15:42:55	185.0000	86.0000	0.0000
15:42:55	186.0000	106.0000	0.0000
15:42:55	186.0000	96.0000	0.0000
15:42:55	178.0000	102.0000	0.0000
15:42:55	187.0000	84.0000	0.0000
15:42:55	216.0000	96.0000	0.0000
15:42:55	185.0000	92.0000	0.0000
15:42:55	185.0000	90.0000	0.0000
15:42:55	187.0000	91.0000	0.0000
15:42:55	185.0000	93.0000	0.0000
15:42:55	186.0000	91.0000	0.0000
15:42:55	180.0000	93.0000	0.0000
15:42:55	190.0000	91.0000	0.0000
15:42:55	183.0000	90.0000	0.0000
15:42:55	191.0000	106.0000	0.0000
15:42:55	183.0000	89.0000	0.0000
15:42:55	183.0000	89.0000	0.0000
15:42:55	177.0000	87.0000	0.0000
15:42:55	182.0000	90.0000	0.0000
15:42:55	182.0000	87.0000	0.0000
15:42:55	182.0000	93.0000	0.0000
15:42:55	176.0000	81.0000	0.0000
15:42:55	183.0000	103.0000	0.0000
15:42:55	176.0000	89.0000	0.0000
15:42:55	179.0000	90.0000	0.0000
15:42:55	179.0000	79.0000	0.0000
15:42:55	179.0000	80.0000	0.0000
15:42:55	184.0000	98.0000	0.0000
15:42:55	180.0000	90.0000	0.0000
15:42:55	188.0000	98.0000	0.0000
15:42:55	176.0000	79.0000	0.0000
15:42:55	177.0000	99.0000	0.0000
15:42:55	179.0000	88.0000	0.0000
15:42:55	178.0000	90.0000	0.0000
15:42:55	177.0000	80.0000	0.0000
15:42:55	196.0000	91.0000	0.0000
15:42:55	178.0000	85.0000	0.0000
15:42:55	178.0000	89.0000	0.0000
15:42:55	163.0000	78.0000	0.0000
15:42:55	181.0000	100.0000	0.0000
15:42:55	182.0000	91.0000	0.0000
15:42:55	179.0000	91.0000	0.0000
15:42:55	183.0000	97.0000	0.0000
15:42:55	179.0000	77.0000	0.0000
15:42:55	178.0000	99.0000	0.0000
15:42:55	182.0000	86.0000	0.0000
15:42:55	178.0000	89.0000	0.0000
15:42:55	176.0000	79.0000	0.0000
15:42:55	190.0000	87.0000	0.0000
15:42:55	182.0000	114.0000	0.0000
15:42:55	176.0000	91.0000	0.0000
15:42:55	178.0000	112.0000	0.0000
15:42:55	176.0000	103.0000	0.0000
15:42:55	178.0000	108.0000	0.0000
15:42:55	167.0000	98.0000	0.0000
15:42:55	177.0000	95.0000	0.0000
15:42:55	177.0000	96.0000	0.0000
15:42:55	176.0000	91.0000	0.0000
15:42:55	176.0000	91.0000	0.0000
15:42:55	178.0000	95.0000	0.0000
15:42:55	178.0000	90.0000	0.0000
15:42:55	176.0000	91.0000	0.0000
15:42:55	180.0000	98.0000	0.0000
15:42:55	176.0000	78.0000	0.0000
15:42:55	186.0000	100.0000	0.0000
15:42:55	176.0000	93.0000	0.0000
15:42:55	179.0000	99.0000	0.0000
15:42:55	177.0000	77.0000	0.0000
15:42:55	176.0000	90.0000	0.0000
15:42:55	176.0000	86.0000	0.0000
15:42:55	177.0000	85.0000	0.0000
15:42:55	172.0000	77.0000	0.0000
15:42:55	176.0000	91.0000	0.0000
15:42:55	173.0000	85.0000	0.0000
15:42:55	176.0000	87.0000	0.0000
15:42:55	176.0000	85.0000	0.0000
15:42:55	176.0000	85.0000	0.0000
15:42:55	177.0000	97.0000	0.0000
15:42:55	176.0000	85.0000	0.0000
15:42:55	178.0000	95.0000	0.0000
15:42:55	178.0000	77.0000	0.0000
15:42:55	173.0000	87.0000	0.0000
15:42:55	176.0000	86.0000	0.0000
15:42:55	176.0000	86.0000	0.0000
15:42:55	173.0000	75.0000	0.0000
15:42:55	176.0000	87.0000	0.0000
15:42:55	169.0000	86.0000	0.0000
15:42:55	177.0000	86.0000	0.0000
15:42:55	178.0000	77.0000	0.0000
15:42:55	176.0000	85.0000	0.0000
15:42:55	177.0000	95.0000	0.0000
15:42:55	176.0000	84.0000	0.0000
15:42:55	177.0000	82.0000	0.0000
15:42:55	176.0000	85.0000	0.0000
15:42:55	176.0000	97.0000	0.0000
15:42:55	177.0000	86.0000	0.0000
15:42:55	176.0000	85.0000	0.0000
15:42:55	176.0000	80.0000	0.0000
15:42:55	176.0000	89.0000	0.0000
15:42:55	170.0000	83.0000	0.0000
15:42:55	176.0000	87.0000	0.0000
15:42:55	157.0000	79.0000	0.0000
15:42:55	177.0000	98.0000	0.0000
15:42:55	176.0000	83.0000	0.0000
15:42:55	176.0000	87.0000	0.0000
15:42:55	177.0000	94.0000	0.0000
15:42:55	176.0000	77.0000	0.0000
15:42:55	185.0000	96.0000	0.0000
15:42:55	174.0000	83.0000	0.0000
15:42:55	175.0000	96.0000	0.0000
15:42:55	181.0000	87.0000	0.0000
15:42:55	176.0000	87.0000	0.0000
15:42:55	174.0000	84.0000	0.0000
15:42:55	178.0000	89.0000	0.0000
15:42:55	173.0000	74.0000	0.0000
15:42:55	176.0000	86.0000	0.0000
15:42:55	166.0000	83.0000	0.0000
15:42:55	177.0000	86.0000	0.0000
15:42:55	173.0000	87.0000	0.0000
15:42:55	176.0000	85.0000	0.0000
15:42:55	179.0000	97.0000	0.0000
15:42:55	181.0000	86.0000	0.0000
15:42:55	189.0000	97.0000	0.0000
15:42:55	173.0000	70.0000	0.0000
15:42:55	176.0000	91.0000	0.0000
15:42:55	174.0000	86.0000	0.0000
15:42:55	175.0000	86.0000	0.0000
15:42:55	174.0000	78.0000	0.0000
15:42:55	177.0000	95.0000	0.0000
15:42:55	174.0000	83.0000	0.0000
15:42:55	178.0000	86.0000	0.0000
15:42:55	165.0000	78.0000	0.0000
15:42:55	176.0000	102.0000	0.0000
15:42:55	179.0000	91.0000	0.0000
15:42:55	176.0000	90.0000	0.0000
15:42:55	178.0000	93.0000	0.0000
15:42:55	183.0000	85.0000	0.0000
15:42:55	176.0000	92.0000	0.0000
15:42:55	188.0000	86.0000	0.0000
15:42:55	176.0000	95.0000	0.0000
15:42:55	175.0000	75.0000	0.0000
15:42:55	178.0000	87.0000	0.0000
15:42:55	176.0000	83.0000	0.0000
15:42:55	176.0000	86.0000	0.0000
15:42:55	166.0000	75.0000	0.0000
15:42:55	176.0000	87.0000	0.0000
15:42:55	166.0000	83.0000	0.0000
15:42:55	177.0000	87.0000	0.0000
15:42:55	176.0000	79.0000	0.0000
15:42:55	173.0000	78.0000	0.0000
15:42:55	180.0000	95.0000	0.0000
15:42:55	175.0000	87.0000	0.0000
15:42:55	176.0000	86.0000	0.0000
15:42:55	177.0000	86.0000	0.0000
15:42:55	176.0000	87.0000	0.0000
15:42:55	180.0000	84.0000	0.0000
15:42:55	176.0000	85.0000	0.0000
15:42:55	161.0000	85.0000	0.0000
15:42:55	176.0000	86.0000	0.0000
15:42:55	170.0000	84.0000	0.0000
15:42:55	176.0000	86.0000	0.0000
15:42:55	176.0000	86.0000	0.0000
15:42:55	176.0000	86.0000	0.0000
15:42:55	178.0000	94.0000	0.0000
15:42:55	176.0000	85.0000	0.0000
15:42:55	176.0000	86.0000	0.0000
15:42:55	175.0000	86.0000	0.0000
15:42:55	176.0000	97.0000	0.0000
15:42:55	176.0000	86.0000	0.0000
15:42:55	176.0000	86.0000	0.0000
15:42:55	176.0000	85.0000	0.0000
15:42:55	176.0000	86.0000	0.0000
15:42:55	174.0000	83.0000	0.0000
15:42:55	176.0000	83.0000	0.0000
15:42:55	176.0000	84.0000	0.0000
15:42:55	176.0000	90.0000	0.0000
15:42:55	177.0000	86.0000	0.0000
15:42:55	176.0000	86.0000	0.0000
15:42:55	175.0000	85.0000	0.0000
15:42:55	176.0000	84.0000	0.0000
15:42:55	182.0000	97.0000	0.0000
15:42:55	176.0000	85.0000	0.0000
15:42:55	176.0000	83.0000	0.0000
15:42:55	176.0000	86.0000	0.0000
15:42:55	175.0000	86.0000	0.0000
15:42:55	175.0000	86.0000	0.0000
15:42:55	176.0000	86.0000	0.0000
15:42:55	174.0000	85.0000	0.0000
15:42:55	176.0000	91.0000	0.0000
15:42:55	169.0000	82.0000	0.0000
15:42:55	175.0000	83.0000	0.0000
15:42:55	171.0000	84.0000	0.0000
15:42:55	174.0000	85.0000	0.0000
15:42:55	177.0000	95.0000	0.0000
15:42:55	173.0000	86.0000	0.0000
15:42:55	173.0000	86.0000	0.0000
15:42:55	175.0000	82.0000	0.0000
15:42:55	171.0000	98.0000	0.0000
15:42:55	173.0000	85.0000	0.0000
15:42:55	176.0000	85.0000	0.0000
15:42:55	176.0000	84.0000	0.0000
15:42:55	172.0000	86.0000	0.0000
15:42:55	169.0000	82.0000	0.0000
15:42:55	159.0000	89.0000	0.0000
15:42:55	174.0000	87.0000	0.0000
15:42:55	176.0000	85.0000	0.0000
15:42:55	175.0000	84.0000	0.0000
15:42:55	175.0000	86.0000	0.0000
15:42:55	170.0000	84.0000	0.0000
15:42:55	174.0000	85.0000	0.0000
15:42:55	182.0000	96.0000	0.0000
15:42:55	176.0000	83.0000	0.0000
15:42:55	175.0000	83.0000	0.0000
15:42:55	173.0000	83.0000	0.0000
15:42:55	176.0000	83.0000	0.0000
15:42:55	174.0000	94.0000	0.0000
15:42:55	176.0000	85.0000	0.0000
15:42:55	175.0000	87.0000	0.0000
15:42:55	176.0000	85.0000	0.0000
15:42:55	170.0000	83.0000	0.0000
15:42:55	176.0000	89.0000	0.0000
15:42:55	176.0000	85.0000	0.0000
15:42:55	174.0000	86.0000	0.0000
15:42:55	179.0000	93.0000	0.0000
15:42:55	175.0000	87.0000	0.0000
15:42:55	176.0000	84.0000	0.0000
15:42:55	172.0000	85.0000	0.0000
15:42:55	174.0000	96.0000	0.0000
15:42:55	174.0000	85.0000	0.0000
15:42:55	172.0000	84.0000	0.0000
15:42:55	173.0000	85.0000	0.0000
15:42:55	172.0000	87.0000	0.0000
15:42:55	170.0000	85.0000	0.0000
15:42:55	173.0000	86.0000	0.0000
15:42:55	154.0000	78.0000	0.0000
15:42:55	176.0000	81.0000	0.0000
15:42:55	175.0000	87.0000	0.0000
15:42:55	170.0000	87.0000	0.0000
15:42:55	175.0000	96.0000	0.0000
15:42:55	170.0000	78.0000	0.0000
15:42:55	179.0000	96.0000	0.0000
15:42:55	171.0000	85.0000	0.0000
15:42:55	174.0000	88.0000	0.0000
15:42:55	175.0000	86.0000	0.0000
15:42:55	173.0000	86.0000	0.0000
15:42:55	176.0000	87.0000	0.0000
15:42:55	173.0000	83.0000	0.0000
15:42:55	171.0000	86.0000	0.0000
15:42:55	174.0000	86.0000	0.0000
15:42:55	165.0000	82.0000	0.0000
15:42:55	176.0000	90.0000	0.0000
15:42:55	176.0000	85.0000	0.0000
15:42:55	173.0000	87.0000	0.0000
15:42:55	177.0000	95.0000	0.0000
15:42:55	174.0000	84.0000	0.0000
15:42:55	176.0000	82.0000	0.0000
15:42:55	175.0000	83.0000	0.0000
15:42:55	180.0000	83.0000	0.0000
15:42:55	179.0000	84.0000	0.0000
15:42:55	176.0000	83.0000	0.0000
15:42:55	176.0000	86.0000	0.0000
15:42:55	175.0000	83.0000	0.0000
15:42:55	172.0000	86.0000	0.0000
15:42:55	175.0000	83.0000	0.0000
15:42:55	176.0000	83.0000	0.0000
15:42:55	176.0000	85.0000	0.0000
15:42:55	181.0000	98.0000	0.0000
15:42:55	176.0000	87.0000	0.0000
15:42:55	176.0000	90.0000	0.0000
15:42:55	176.0000	89.0000	0.0000
15:42:55	176.0000	88.0000	0.0000
15:42:55	174.0000	85.0000	0.0000
15:42:55	176.0000	89.0000	0.0000
15:42:55	176.0000	74.0000	0.0000
15:42:55	175.0000	78.0000	0.0000
15:42:55	173.0000	203.0000	0.0000
15:42:55	173.0000	202.0000	0.0000
15:42:55	173.0000	181.0000	0.0000
15:42:55	175.0000	176.0000	0.0000
15:42:55	173.0000	144.0000	0.0000
15:42:55	178.0000	158.0000	0.0000
15:42:55	171.0000	139.0000	0.0000
15:42:55	173.0000	140.0000	0.0000
15:42:55	174.0000	111.0000	0.0000
15:42:55	171.0000	118.0000	0.0000
15:42:55	171.0000	114.0000	0.0000
15:42:55	173.0000	112.0000	0.0000
15:42:55	176.0000	172.0000	0.0000
15:42:55	176.0000	172.0000	0.0000
15:42:55	176.0000	159.0000	0.0000
15:42:55	179.0000	147.0000	0.0000
15:42:55	161.0000	130.0000	0.0000
15:42:55	191.0000	135.0000	0.0000
15:42:55	179.0000	127.0000	0.0000
15:42:55	178.0000	123.0000	0.0000
15:42:55	182.0000	124.0000	0.0000
15:42:55	178.0000	102.0000	0.0000
15:42:55	178.0000	119.0000	0.0000
15:42:55	185.0000	107.0000	0.0000
15:42:55	181.0000	159.0000	0.0000
15:42:55	176.0000	149.0000	0.0000
15:42:55	179.0000	144.0000	0.0000
15:42:55	179.0000	123.0000	0.0000
15:42:55	198.0000	130.0000	0.0000
15:42:55	186.0000	129.0000	0.0000
15:42:55	179.0000	115.0000	0.0000
15:42:55	189.0000	122.0000	0.0000
15:42:55	180.0000	99.0000	0.0000
15:42:55	189.0000	117.0000	0.0000
15:42:55	192.0000	107.0000	0.0000
15:42:55	182.0000	103.0000	0.0000
15:42:55	180.0000	162.0000	0.0000
15:42:55	182.0000	161.0000	0.0000
15:42:55	176.0000	151.0000	0.0000
15:42:55	182.0000	146.0000	0.0000
15:42:55	162.0000	125.0000	0.0000
15:42:55	203.0000	130.0000	0.0000
15:42:55	184.0000	131.0000	0.0000
15:42:55	179.0000	119.0000	0.0000
15:42:55	186.0000	123.0000	0.0000
15:42:55	179.0000	102.0000	0.0000
15:42:55	186.0000	118.0000	0.0000
15:42:55	183.0000	105.0000	0.0000
15:42:55	184.0000	134.0000	0.0000
15:42:55	183.0000	128.0000	0.0000
15:42:55	183.0000	122.0000	0.0000
15:42:55	186.0000	121.0000	0.0000
15:42:55	179.0000	112.0000	0.0000
15:42:55	186.0000	111.0000	0.0000
15:42:55	188.0000	112.0000	0.0000
15:42:55	191.0000	106.0000	0.0000
15:42:55	192.0000	109.0000	0.0000
15:42:55	187.0000	105.0000	0.0000
15:42:55	191.0000	111.0000	0.0000
15:42:55	190.0000	85.0000	0.0000
15:42:55	195.0000	110.0000	0.0000
15:42:55	191.0000	99.0000	0.0000
15:42:55	190.0000	108.0000	0.0000
15:42:55	190.0000	85.0000	0.0000
15:42:55	192.0000	95.0000	0.0000
15:42:55	186.0000	94.0000	0.0000
15:42:55	187.0000	96.0000	0.0000
15:42:55	177.0000	81.0000	0.0000
15:42:55	189.0000	95.0000	0.0000
15:42:55	190.0000	160.0000	0.0000
15:42:55	182.0000	132.0000	0.0000
15:42:55	183.0000	144.0000	0.0000
15:42:55	181.0000	128.0000	0.0000
15:42:55	186.0000	125.0000	0.0000
15:42:55	180.0000	114.0000	0.0000
15:42:55	187.0000	114.0000	0.0000
15:42:55	183.0000	113.0000	0.0000
15:42:55	184.0000	112.0000	0.0000
15:42:55	174.0000	96.0000	0.0000
15:42:55	189.0000	109.0000	0.0000
15:42:55	188.0000	105.0000	0.0000
15:42:55	183.0000	144.0000	0.0000
15:42:55	190.0000	145.0000	0.0000
15:42:55	190.0000	138.0000	0.0000
15:42:55	192.0000	128.0000	0.0000
15:42:55	189.0000	112.0000	0.0000
15:42:55	193.0000	112.0000	0.0000
15:42:55	194.0000	119.0000	0.0000
15:42:55	197.0000	115.0000	0.0000
15:42:55	192.0000	118.0000	0.0000
15:42:55	189.0000	96.0000	0.0000
15:42:55	189.0000	116.0000	0.0000
15:42:55	192.0000	103.0000	0.0000
15:42:55	187.0000	140.0000	0.0000
15:42:55	176.0000	123.0000	0.0000
15:42:55	189.0000	117.0000	0.0000
15:42:55	189.0000	121.0000	0.0000
15:42:55	190.0000	122.0000	0.0000
15:42:55	192.0000	125.0000	0.0000
15:42:55	189.0000	102.0000	0.0000
15:42:55	196.0000	119.0000	0.0000
15:42:55	188.0000	110.0000	0.0000
15:42:55	188.0000	115.0000	0.0000
15:42:55	191.0000	91.0000	0.0000
15:42:55	188.0000	99.0000	0.0000
15:42:55	186.0000	111.0000	0.0000
15:42:55	194.0000	112.0000	0.0000
15:42:55	189.0000	93.0000	0.0000
15:42:55	193.0000	112.0000	0.0000
15:42:55	187.0000	98.0000	0.0000
15:42:55	189.0000	111.0000	0.0000
15:42:55	188.0000	87.0000	0.0000
15:42:55	192.0000	102.0000	0.0000
15:42:55	189.0000	95.0000	0.0000
15:42:55	189.0000	97.0000	0.0000
15:42:55	180.0000	80.0000	0.0000
15:42:55	192.0000	82.0000	0.0000
15:42:55	189.0000	94.0000	0.0000
15:42:55	194.0000	97.0000	0.0000
15:42:55	195.0000	98.0000	0.0000
15:42:55	191.0000	83.0000	0.0000
15:42:55	199.0000	106.0000	0.0000
15:42:55	191.0000	95.0000	0.0000
15:42:55	194.0000	103.0000	0.0000
15:42:55	190.0000	81.0000	0.0000
15:42:55	192.0000	96.0000	0.0000
15:42:55	191.0000	103.0000	0.0000
15:42:55	177.0000	87.0000	0.0000
15:42:55	192.0000	103.0000	0.0000
15:42:55	191.0000	99.0000	0.0000
15:42:55	194.0000	101.0000	0.0000
15:42:55	193.0000	111.0000	0.0000
15:42:55	192.0000	97.0000	0.0000
15:42:55	192.0000	108.0000	0.0000
15:42:55	190.0000	94.0000	0.0000
15:42:55	189.0000	104.0000	0.0000
15:42:55	190.0000	80.0000	0.0000
15:42:55	203.0000	96.0000	0.0000
15:42:55	187.0000	91.0000	0.0000
15:42:55	191.0000	94.0000	0.0000
15:42:55	176.0000	79.0000	0.0000
15:42:55	189.0000	92.0000	0.0000
15:42:55	191.0000	94.0000	0.0000
15:42:55	184.0000	93.0000	0.0000
15:42:55	190.0000	95.0000	0.0000
15:42:55	189.0000	91.0000	0.0000
15:42:55	196.0000	102.0000	0.0000
15:42:55	189.0000	94.0000	0.0000
15:42:55	190.0000	103.0000	0.0000
15:42:55	198.0000	80.0000	0.0000
15:42:55	192.0000	95.0000	0.0000
15:42:55	190.0000	91.0000	0.0000
15:42:55	192.0000	92.0000	0.0000
15:42:55	182.0000	80.0000	0.0000
15:42:55	199.0000	93.0000	0.0000
15:42:55	182.0000	91.0000	0.0000
15:42:55	192.0000	93.0000	0.0000
15:42:55	195.0000	84.0000	0.0000
15:42:55	190.0000	93.0000	0.0000
15:42:55	197.0000	102.0000	0.0000
15:42:55	192.0000	92.0000	0.0000
15:42:55	202.0000	103.0000	0.0000
15:42:55	190.0000	80.0000	0.0000
15:42:55	191.0000	93.0000	0.0000
15:42:55	187.0000	96.0000	0.0000
15:42:55	191.0000	93.0000	0.0000
15:42:55	188.0000	80.0000	0.0000
15:42:55	191.0000	94.0000	0.0000
15:42:55	180.0000	94.0000	0.0000
15:42:55	194.0000	96.0000	0.0000
15:42:55	191.0000	82.0000	0.0000
15:42:55	191.0000	95.0000	0.0000
15:42:55	193.0000	99.0000	0.0000
15:42:55	190.0000	93.0000	0.0000
15:42:55	192.0000	106.0000	0.0000
15:42:55	193.0000	95.0000	0.0000
15:42:55	190.0000	103.0000	0.0000
15:42:55	197.0000	94.0000	0.0000
15:42:55	187.0000	97.0000	0.0000
15:42:55	188.0000	80.0000	0.0000
15:42:55	192.0000	93.0000	0.0000
15:42:55	185.0000	89.0000	0.0000
15:42:55	189.0000	91.0000	0.0000
15:42:55	174.0000	80.0000	0.0000
15:42:55	190.0000	93.0000	0.0000
15:42:55	192.0000	94.0000	0.0000
15:42:55	192.0000	93.0000	0.0000
15:42:55	194.0000	101.0000	0.0000
15:42:55	203.0000	82.0000	0.0000
15:42:55	193.0000	108.0000	0.0000
15:42:55	197.0000	101.0000	0.0000
15:42:55	197.0000	96.0000	0.0000
15:42:55	195.0000	81.0000	0.0000
15:42:55	199.0000	93.0000	0.0000
15:42:55	195.0000	90.0000	0.0000
15:42:55	200.0000	95.0000	0.0000
15:42:55	191.0000	81.0000	0.0000
15:42:55	197.0000	94.0000	0.0000
15:42:55	199.0000	96.0000	0.0000
15:42:55	197.0000	92.0000	0.0000
15:42:55	197.0000	96.0000	0.0000
15:42:55	185.0000	92.0000	0.0000
15:42:55	206.0000	106.0000	0.0000
15:42:55	197.0000	96.0000	0.0000
15:42:55	204.0000	106.0000	0.0000
15:42:55	197.0000	82.0000	0.0000
15:42:55	201.0000	96.0000	0.0000
15:42:55	193.0000	93.0000	0.0000
15:42:55	207.0000	94.0000	0.0000
15:42:55	193.0000	80.0000	0.0000
15:42:55	199.0000	106.0000	0.0000
15:42:55	192.0000	97.0000	0.0000
15:42:55	197.0000	97.0000	0.0000
15:42:55	203.0000	84.0000	0.0000
15:42:55	199.0000	97.0000	0.0000
15:42:55	208.0000	107.0000	0.0000
15:42:55	199.0000	95.0000	0.0000
15:42:55	205.0000	103.0000	0.0000
15:42:55	198.0000	81.0000	0.0000
15:42:55	195.0000	106.0000	0.0000
15:42:55	195.0000	95.0000	0.0000
15:42:55	199.0000	94.0000	0.0000
15:42:55	192.0000	95.0000	0.0000
15:42:55	196.0000	95.0000	0.0000
15:42:55	191.0000	93.0000	0.0000
15:42:55	199.0000	93.0000	0.0000
15:42:55	193.0000	95.0000	0.0000
15:42:55	193.0000	97.0000	0.0000
15:42:55	193.0000	102.0000	0.0000
15:42:55	191.0000	93.0000	0.0000
15:42:55	195.0000	95.0000	0.0000
15:42:55	193.0000	94.0000	0.0000
15:42:55	195.0000	105.0000	0.0000
15:42:55	198.0000	93.0000	0.0000
15:42:55	195.0000	95.0000	0.0000
15:42:55	196.0000	93.0000	0.0000
15:42:55	195.0000	97.0000	0.0000
15:42:55	198.0000	101.0000	0.0000
15:42:55	193.0000	94.0000	0.0000
15:42:55	196.0000	96.0000	0.0000
15:42:55	201.0000	98.0000	0.0000
15:42:56	200.0000	96.0000	0.0000
15:42:56	197.0000	95.0000	0.0000
15:42:56	199.0000	97.0000	0.0000
15:42:56	196.0000	94.0000	0.0000
15:42:56	208.0000	103.0000	0.0000
15:42:56	195.0000	94.0000	0.0000
15:42:56	202.0000	94.0000	0.0000
15:42:56	198.0000	97.0000	0.0000
15:42:56	197.0000	94.0000	0.0000
15:42:56	196.0000	95.0000	0.0000
15:42:56	191.0000	94.0000	0.0000
15:42:56	193.0000	96.0000	0.0000
15:42:56	195.0000	99.0000	0.0000
15:42:56	191.0000	93.0000	0.0000
15:42:56	193.0000	95.0000	0.0000
15:42:56	195.0000	93.0000	0.0000
15:42:56	196.0000	96.0000	0.0000
15:42:56	201.0000	108.0000	0.0000
15:42:56	192.0000	95.0000	0.0000
15:42:56	194.0000	97.0000	0.0000
15:42:56	195.0000	93.0000	0.0000
15:42:56	193.0000	108.0000	0.0000
15:42:56	193.0000	96.0000	0.0000
15:42:56	195.0000	96.0000	0.0000
15:42:56	193.0000	95.0000	0.0000
15:42:56	193.0000	94.0000	0.0000
15:42:56	192.0000	94.0000	0.0000
15:42:56	192.0000	95.0000	0.0000
15:42:56	192.0000	94.0000	0.0000
15:42:56	192.0000	94.0000	0.0000
15:42:56	194.0000	97.0000	0.0000
15:42:56	192.0000	95.0000	0.0000
15:42:56	193.0000	97.0000	0.0000
15:42:56	192.0000	95.0000	0.0000
15:42:56	202.0000	105.0000	0.0000
15:42:56	194.0000	95.0000	0.0000
15:42:56	191.0000	93.0000	0.0000
15:42:56	192.0000	93.0000	0.0000
15:42:56	195.0000	94.0000	0.0000
15:42:56	205.0000	96.0000	0.0000
15:42:56	192.0000	96.0000	0.0000
15:42:56	192.0000	94.0000	0.0000
15:42:56	192.0000	94.0000	0.0000
15:42:56	186.0000	92.0000	0.0000
15:42:56	194.0000	93.0000	0.0000
15:42:56	194.0000	93.0000	0.0000
15:42:56	192.0000	95.0000	0.0000
15:42:56	194.0000	105.0000	0.0000
15:42:56	192.0000	93.0000	0.0000
15:42:56	192.0000	96.0000	0.0000
15:42:56	191.0000	92.0000	0.0000
15:42:56	191.0000	103.0000	0.0000
15:42:56	192.0000	93.0000	0.0000
15:42:56	191.0000	93.0000	0.0000
15:42:56	192.0000	93.0000	0.0000
15:42:56	191.0000	93.0000	0.0000
15:42:56	188.0000	90.0000	0.0000
15:42:56	190.0000	93.0000	0.0000
15:42:56	191.0000	95.0000	0.0000
15:42:56	193.0000	94.0000	0.0000
15:42:56	192.0000	93.0000	0.0000
15:42:56	194.0000	95.0000	0.0000
15:42:56	193.0000	99.0000	0.0000
15:42:56	191.0000	80.0000	0.0000
15:42:56	201.0000	101.0000	0.0000
15:42:56	191.0000	98.0000	0.0000
15:42:56	192.0000	103.0000	0.0000
15:42:56	193.0000	80.0000	0.0000
15:42:56	192.0000	93.0000	0.0000
15:42:56	188.0000	99.0000	0.0000
15:42:56	189.0000	94.0000	0.0000
15:42:56	189.0000	92.0000	0.0000
15:42:56	192.0000	94.0000	0.0000
15:42:56	187.0000	103.0000	0.0000
15:42:56	189.0000	102.0000	0.0000
15:42:56	190.0000	105.0000	0.0000
15:42:56	199.0000	111.0000	0.0000
15:42:56	192.0000	98.0000	0.0000
15:42:56	189.0000	97.0000	0.0000
15:42:56	191.0000	98.0000	0.0000
15:42:56	188.0000	96.0000	0.0000
15:42:56	203.0000	96.0000	0.0000
15:42:56	189.0000	91.0000	0.0000
15:42:56	190.0000	94.0000	0.0000
15:42:56	187.0000	92.0000	0.0000
15:42:56	186.0000	89.0000	0.0000
15:42:56	190.0000	93.0000	0.0000
15:42:56	193.0000	93.0000	0.0000
15:42:56	194.0000	93.0000	0.0000
15:42:56	194.0000	102.0000	0.0000
15:42:56	188.0000	93.0000	0.0000
15:42:56	189.0000	87.0000	0.0000
15:42:56	190.0000	92.0000	0.0000
15:42:56	191.0000	98.0000	0.0000
15:42:56	190.0000	95.0000	0.0000
15:42:56	190.0000	92.0000	0.0000
15:42:56	193.0000	96.0000	0.0000
15:42:56	194.0000	96.0000	0.0000
15:42:56	179.0000	96.0000	0.0000
15:42:56	192.0000	93.0000	0.0000
15:42:56	194.0000	103.0000	0.0000
15:42:56	191.0000	85.0000	0.0000
15:42:56	192.0000	101.0000	0.0000
15:42:56	192.0000	93.0000	0.0000
15:42:56	191.0000	99.0000	0.0000
15:42:56	194.0000	85.0000	0.0000
15:42:56	169.0000	379.0000	0.0000
15:42:56	192.0000	357.0000	0.0000
15:42:56	187.0000	320.0000	0.0000
15:42:56	192.0000	289.0000	0.0000
15:42:56	189.0000	270.0000	0.0000
15:42:56	185.0000	227.0000	0.0000
15:42:56	185.0000	227.0000	0.0000
15:42:56	187.0000	202.0000	0.0000
15:42:56	186.0000	193.0000	0.0000
15:42:56	181.0000	162.0000	0.0000
15:42:56	187.0000	159.0000	0.0000
15:42:56	182.0000	150.0000	0.0000
15:42:56	197.0000	191.0000	0.0000
15:42:56	186.0000	178.0000	0.0000
15:42:56	182.0000	165.0000	0.0000
15:42:56	187.0000	161.0000	0.0000
15:42:56	179.0000	133.0000	0.0000
15:42:56	183.0000	149.0000	0.0000
15:42:56	194.0000	129.0000	0.0000
15:42:56	179.0000	128.0000	0.0000
15:42:56	181.0000	112.0000	0.0000
15:42:56	185.0000	117.0000	0.0000
15:42:56	179.0000	112.0000	0.0000
15:42:56	182.0000	111.0000	0.0000
15:42:56	186.0000	160.0000	0.0000
15:42:56	185.0000	147.0000	0.0000
15:42:56	183.0000	144.0000	0.0000
15:42:56	176.0000	124.0000	0.0000
15:42:56	185.0000	130.0000	0.0000
15:42:56	177.0000	122.0000	0.0000
15:42:56	185.0000	121.0000	0.0000
15:42:56	183.0000	113.0000	0.0000
15:42:56	180.0000	127.0000	0.0000
15:42:56	192.0000	120.0000	0.0000
15:42:56	182.0000	108.0000	0.0000
15:42:56	192.0000	113.0000	0.0000
15:42:56	178.0000	132.0000	0.0000
15:42:56	180.0000	145.0000	0.0000
15:42:56	183.0000	130.0000	0.0000
15:42:56	182.0000	126.0000	0.0000
15:42:56	180.0000	112.0000	0.0000
15:42:56	179.0000	113.0000	0.0000
15:42:56	179.0000	113.0000	0.0000
15:42:56	186.0000	112.0000	0.0000
15:42:56	164.0000	98.0000	0.0000
15:42:56	192.0000	109.0000	0.0000
15:42:56	190.0000	105.0000	0.0000
15:42:56	190.0000	103.0000	0.0000
15:42:56	181.0000	107.0000	0.0000
15:42:56	187.0000	103.0000	0.0000
15:42:56	181.0000	105.0000	0.0000
15:42:56	183.0000	100.0000	0.0000
15:42:56	186.0000	97.0000	0.0000
15:42:56	188.0000	99.0000	0.0000
15:42:56	191.0000	97.0000	0.0000
15:42:56	185.0000	99.0000	0.0000
15:42:56	191.0000	103.0000	0.0000
15:42:56	186.0000	82.0000	0.0000
15:42:56	186.0000	102.0000	0.0000
15:42:56	186.0000	96.0000	0.0000
15:42:56	187.0000	102.0000	0.0000
15:42:56	191.0000	81.0000	0.0000
15:42:56	191.0000	95.0000	0.0000
15:42:56	181.0000	87.0000	0.0000
15:42:56	183.0000	93.0000	0.0000
15:42:56	176.0000	80.0000	0.0000
15:42:56	185.0000	80.0000	0.0000
15:42:56	187.0000	90.0000	0.0000
15:42:56	181.0000	93.0000	0.0000
15:42:56	187.0000	85.0000	0.0000
15:42:56	183.0000	80.0000	0.0000
15:42:56	192.0000	99.0000	0.0000
15:42:56	183.0000	89.0000	0.0000
15:42:56	187.0000	95.0000	0.0000
15:42:56	182.0000	77.0000	0.0000
15:42:56	185.0000	92.0000	0.0000
15:42:56	182.0000	90.0000	0.0000
15:42:56	181.0000	91.0000	0.0000
15:42:56	176.0000	85.0000	0.0000
15:42:56	183.0000	99.0000	0.0000
15:42:56	178.0000	90.0000	0.0000
15:42:56	186.0000	93.0000	0.0000
15:42:56	182.0000	80.0000	0.0000
15:42:56	181.0000	81.0000	0.0000
15:42:56	186.0000	100.0000	0.0000
15:42:56	185.0000	99.0000	0.0000
15:42:56	192.0000	97.0000	0.0000
15:42:56	193.0000	80.0000	0.0000
15:42:56	182.0000	102.0000	0.0000
15:42:56	192.0000	92.0000	0.0000
15:42:56	181.0000	90.0000	0.0000
15:42:56	181.0000	80.0000	0.0000
15:42:56	188.0000	91.0000	0.0000
15:42:56	178.0000	87.0000	0.0000
15:42:56	185.0000	87.0000	0.0000
15:42:56	181.0000	90.0000	0.0000
15:42:56	189.0000	110.0000	0.0000
15:42:56	181.0000	97.0000	0.0000
15:42:56	190.0000	105.0000	0.0000
15:42:56	187.0000	97.0000	0.0000
15:42:56	182.0000	94.0000	0.0000
15:42:56	181.0000	99.0000	0.0000
15:42:56	181.0000	94.0000	0.0000
15:42:56	182.0000	95.0000	0.0000
15:42:56	183.0000	97.0000	0.0000
15:42:56	177.0000	90.0000	0.0000
15:42:56	181.0000	92.0000	0.0000
15:42:56	185.0000	82.0000	0.0000
15:42:56	182.0000	81.0000	0.0000
15:42:56	189.0000	103.0000	0.0000
15:42:56	183.0000	88.0000	0.0000
15:42:56	192.0000	101.0000	0.0000
15:42:56	187.0000	93.0000	0.0000
15:42:56	186.0000	98.0000	0.0000
15:42:56	183.0000	95.0000	0.0000
15:42:56	186.0000	91.0000	0.0000
15:42:56	183.0000	80.0000	0.0000
15:42:56	210.0000	90.0000	0.0000
15:42:56	185.0000	90.0000	0.0000
15:42:56	182.0000	92.0000	0.0000
15:42:56	165.0000	74.0000	0.0000
15:42:56	188.0000	81.0000	0.0000
15:42:56	186.0000	90.0000	0.0000
15:42:56	181.0000	92.0000	0.0000
15:42:56	193.0000	99.0000	0.0000
15:42:56	187.0000	91.0000	0.0000
15:42:56	194.0000	99.0000	0.0000
15:42:56	181.0000	90.0000	0.0000
15:42:56	181.0000	100.0000	0.0000
15:42:56	186.0000	79.0000	0.0000
15:42:56	186.0000	90.0000	0.0000
15:42:56	185.0000	89.0000	0.0000
15:42:56	185.0000	91.0000	0.0000
15:42:56	176.0000	80.0000	0.0000
15:42:56	181.0000	81.0000	0.0000
15:42:56	178.0000	89.0000	0.0000
15:42:56	187.0000	89.0000	0.0000
15:42:56	182.0000	94.0000	0.0000
15:42:56	181.0000	91.0000	0.0000
15:42:56	192.0000	101.0000	0.0000
15:42:56	182.0000	91.0000	0.0000
15:42:56	194.0000	101.0000	0.0000
15:42:56	182.0000	83.0000	0.0000
15:42:56	188.0000	94.0000	0.0000
15:42:56	186.0000	96.0000	0.0000
15:42:56	182.0000	93.0000	0.0000
15:42:56	179.0000	79.0000	0.0000
15:42:56	194.0000	93.0000	0.0000
15:42:56	177.0000	93.0000	0.0000
15:42:56	187.0000	94.0000	0.0000
15:42:56	187.0000	80.0000	0.0000
15:42:56	182.0000	91.0000	0.0000
15:42:56	190.0000	99.0000	0.0000
15:42:56	181.0000	89.0000	0.0000
15:42:56	192.0000	100.0000	0.0000
15:42:56	180.0000	80.0000	0.0000
15:42:56	182.0000	90.0000	0.0000
15:42:56	182.0000	87.0000	0.0000
15:42:56	186.0000	90.0000	0.0000
15:42:56	179.0000	79.0000	0.0000
15:42:56	188.0000	93.0000	0.0000
15:42:56	178.0000	90.0000	0.0000
15:42:56	181.0000	90.0000	0.0000
15:42:56	187.0000	80.0000	0.0000
15:42:56	181.0000	87.0000	0.0000
15:42:56	185.0000	99.0000	0.0000
15:42:56	180.0000	90.0000	0.0000
15:42:56	180.0000	92.0000	0.0000
15:42:56	182.0000	89.0000	0.0000
15:42:56	181.0000	98.0000	0.0000
15:42:56	178.0000	86.0000	0.0000
15:42:56	178.0000	90.0000	0.0000
15:42:56	179.0000	80.0000	0.0000
15:42:56	185.0000	93.0000	0.0000
15:42:56	178.0000	86.0000	0.0000
15:42:56	182.0000	90.0000	0.0000
15:42:56	162.0000	80.0000	0.0000
15:42:56	181.0000	80.0000	0.0000
15:42:56	181.0000	89.0000	0.0000
15:42:56	188.0000	89.0000	0.0000
15:42:56	183.0000	96.0000	0.0000
15:42:56	177.0000	87.0000	0.0000
15:42:56	187.0000	98.0000	0.0000
15:42:56	179.0000	89.0000	0.0000
15:42:56	186.0000	90.0000	0.0000
15:42:56	179.0000	86.0000	0.0000
15:42:56	179.0000	93.0000	0.0000
15:42:56	185.0000	86.0000	0.0000
15:42:56	177.0000	92.0000	0.0000
15:42:56	170.0000	80.0000	0.0000
15:42:56	181.0000	95.0000	0.0000
15:42:56	185.0000	90.0000	0.0000
15:42:56	181.0000	92.0000	0.0000
15:42:56	183.0000	101.0000	0.0000
15:42:56	179.0000	78.0000	0.0000
15:42:56	180.0000	102.0000	0.0000
15:42:56	186.0000	90.0000	0.0000
15:42:56	181.0000	89.0000	0.0000
15:42:56	183.0000	89.0000	0.0000
15:42:56	181.0000	87.0000	0.0000
15:42:56	169.0000	100.0000	0.0000
15:42:56	180.0000	87.0000	0.0000
15:42:56	179.0000	89.0000	0.0000
15:42:56	185.0000	85.0000	0.0000
15:42:56	182.0000	90.0000	0.0000
15:42:56	176.0000	89.0000	0.0000
15:42:56	178.0000	89.0000	0.0000
15:42:56	180.0000	88.0000	0.0000
15:42:56	192.0000	98.0000	0.0000
15:42:56	184.0000	87.0000	0.0000
15:42:56	186.0000	90.0000	0.0000
15:42:56	173.0000	90.0000	0.0000
15:42:56	181.0000	88.0000	0.0000
15:42:56	179.0000	87.0000	0.0000
15:42:56	181.0000	87.0000	0.0000
15:42:56	183.0000	87.0000	0.0000
15:42:56	181.0000	87.0000	0.0000
15:42:56	176.0000	85.0000	0.0000
15:42:56	178.0000	90.0000	0.0000
15:42:56	181.0000	89.0000	0.0000
15:42:56	180.0000	88.0000	0.0000
15:42:56	186.0000	98.0000	0.0000
15:42:57	182.0000	90.0000	0.0000
15:42:57	179.0000	90.0000	0.0000
15:42:57	180.0000	87.0000	0.0000
15:42:57	183.0000	97.0000	0.0000
15:42:57	181.0000	91.0000	0.0000
15:42:57	181.0000	87.0000	0.0000
15:42:57	182.0000	89.0000	0.0000
15:42:57	182.0000	87.0000	0.0000
15:42:57	178.0000	90.0000	0.0000
15:42:57	180.0000	89.0000	0.0000
15:42:57	182.0000	92.0000	0.0000
15:42:57	180.0000	90.0000	0.0000
15:42:57	181.0000	91.0000	0.0000
15:42:57	179.0000	93.0000	0.0000
15:42:57	179.0000	91.0000	0.0000
15:42:57	181.0000	91.0000	0.0000
15:42:57	192.0000	101.0000	0.0000
15:42:57	178.0000	91.0000	0.0000
15:42:57	182.0000	91.0000	0.0000
15:42:57	180.0000	89.0000	0.0000
15:42:57	179.0000	92.0000	0.0000
15:42:57	187.0000	90.0000	0.0000
15:42:57	180.0000	91.0000	0.0000
15:42:57	177.0000	94.0000	0.0000
15:42:57	178.0000	90.0000	0.0000
15:42:57	177.0000	87.0000	0.0000
15:42:57	180.0000	90.0000	0.0000
15:42:57	177.0000	90.0000	0.0000
15:42:57	179.0000	91.0000	0.0000
15:42:57	181.0000	97.0000	0.0000
15:42:57	178.0000	87.0000	0.0000
15:42:57	179.0000	87.0000	0.0000
15:42:57	180.0000	86.0000	0.0000
15:42:57	178.0000	99.0000	0.0000
15:42:57	176.0000	90.0000	0.0000
15:42:57	178.0000	85.0000	0.0000
15:42:57	180.0000	85.0000	0.0000
15:42:57	179.0000	86.0000	0.0000
15:42:57	177.0000	86.0000	0.0000
15:42:57	178.0000	87.0000	0.0000
15:42:57	178.0000	89.0000	0.0000
15:42:57	181.0000	86.0000	0.0000
15:42:57	180.0000	87.0000	0.0000
15:42:57	179.0000	86.0000	0.0000
15:42:57	177.0000	93.0000	0.0000
15:42:57	176.0000	86.0000	0.0000
15:42:57	191.0000	97.0000	0.0000
15:42:57	180.0000	85.0000	0.0000
15:42:57	181.0000	85.0000	0.0000
15:42:57	179.0000	87.0000	0.0000
15:42:57	178.0000	87.0000	0.0000
15:42:57	178.0000	89.0000	0.0000
15:42:57	178.0000	87.0000	0.0000
15:42:57	177.0000	87.0000	0.0000
15:42:57	178.0000	86.0000	0.0000
15:42:57	171.0000	84.0000	0.0000
15:42:57	178.0000	89.0000	0.0000
15:42:57	178.0000	79.0000	0.0000
15:42:57	189.0000	79.0000	0.0000
15:42:57	185.0000	96.0000	0.0000
15:42:57	180.0000	90.0000	0.0000
15:42:57	185.0000	95.0000	0.0000
15:42:57	176.0000	80.0000	0.0000
15:42:57	176.0000	90.0000	0.0000
15:42:57	178.0000	87.0000	0.0000
15:42:57	176.0000	86.0000	0.0000
15:42:57	176.0000	85.0000	0.0000
15:42:57	176.0000	83.0000	0.0000
15:42:57	172.0000	86.0000	0.0000
15:42:57	176.0000	84.0000	0.0000
15:42:57	176.0000	86.0000	0.0000
15:42:57	176.0000	90.0000	0.0000
15:42:57	178.0000	96.0000	0.0000
15:42:57	175.0000	83.0000	0.0000
15:42:57	176.0000	86.0000	0.0000
15:42:57	176.0000	85.0000	0.0000
15:42:57	176.0000	98.0000	0.0000
15:42:57	175.0000	87.0000	0.0000
15:42:57	176.0000	85.0000	0.0000
15:42:57	176.0000	87.0000	0.0000
15:42:57	175.0000	87.0000	0.0000
15:42:57	173.0000	86.0000	0.0000
15:42:57	175.0000	87.0000	0.0000
15:42:57	175.0000	86.0000	0.0000
15:42:57	176.0000	86.0000	0.0000
15:42:57	176.0000	87.0000	0.0000
15:42:57	174.0000	87.0000	0.0000
15:42:57	174.0000	86.0000	0.0000
15:42:57	176.0000	84.0000	0.0000
15:42:57	179.0000	99.0000	0.0000
15:42:57	176.0000	87.0000	0.0000
15:42:57	176.0000	88.0000	0.0000
15:42:57	175.0000	89.0000	0.0000
15:42:57	176.0000	87.0000	0.0000
15:42:57	165.0000	88.0000	0.0000
15:42:57	172.0000	85.0000	0.0000
15:42:57	176.0000	87.0000	0.0000
15:42:57	176.0000	90.0000	0.0000
15:42:57	178.0000	98.0000	0.0000
15:42:57	175.0000	248.0000	0.0000
15:42:57	178.0000	248.0000	0.0000
15:42:57	176.0000	215.0000	0.0000
15:42:57	182.0000	207.0000	0.0000
15:42:57	177.0000	171.0000	0.0000
15:42:57	177.0000	175.0000	0.0000
15:42:57	176.0000	157.0000	0.0000
15:42:57	179.0000	146.0000	0.0000
15:42:57	176.0000	128.0000	0.0000
15:42:57	182.0000	137.0000	0.0000
15:42:57	176.0000	123.0000	0.0000
15:42:57	180.0000	129.0000	0.0000
15:42:57	174.0000	176.0000	0.0000
15:42:57	176.0000	176.0000	0.0000
15:42:57	176.0000	163.0000	0.0000
15:42:57	176.0000	155.0000	0.0000
15:42:57	165.0000	134.0000	0.0000
15:42:57	180.0000	143.0000	0.0000
15:42:57	177.0000	129.0000	0.0000
15:42:57	178.0000	125.0000	0.0000
15:42:57	176.0000	122.0000	0.0000
15:42:57	176.0000	114.0000	0.0000
15:42:57	176.0000	121.0000	0.0000
15:42:57	176.0000	109.0000	0.0000
15:42:57	175.0000	112.0000	0.0000
15:42:57	176.0000	111.0000	0.0000
15:42:57	174.0000	107.0000	0.0000
15:42:57	176.0000	109.0000	0.0000
15:42:57	176.0000	103.0000	0.0000
15:42:57	176.0000	99.0000	0.0000
15:42:57	183.0000	97.0000	0.0000
15:42:57	175.0000	97.0000	0.0000
15:42:57	176.0000	95.0000	0.0000
15:42:57	178.0000	96.0000	0.0000
15:42:57	176.0000	102.0000	0.0000
15:42:57	179.0000	94.0000	0.0000
15:42:57	175.0000	96.0000	0.0000
15:42:57	176.0000	91.0000	0.0000
15:42:57	176.0000	90.0000	0.0000
15:42:57	176.0000	98.0000	0.0000
15:42:57	176.0000	91.0000	0.0000
15:42:57	176.0000	87.0000	0.0000
15:42:57	177.0000	91.0000	0.0000
15:42:57	178.0000	90.0000	0.0000
15:42:57	176.0000	92.0000	0.0000
15:42:57	177.0000	87.0000	0.0000
15:42:57	176.0000	87.0000	0.0000
15:42:57	182.0000	98.0000	0.0000
15:42:57	176.0000	89.0000	0.0000
15:42:57	176.0000	86.0000	0.0000
15:42:57	176.0000	86.0000	0.0000
15:42:57	176.0000	85.0000	0.0000
15:42:57	174.0000	85.0000	0.0000
15:42:57	176.0000	90.0000	0.0000
15:42:57	175.0000	86.0000	0.0000
15:42:57	172.0000	89.0000	0.0000
15:42:57	176.0000	83.0000	0.0000
15:42:57	176.0000	87.0000	0.0000
15:42:57	176.0000	89.0000	0.0000
15:42:57	176.0000	87.0000	0.0000
15:42:57	176.0000	86.0000	0.0000
15:42:57	181.0000	81.0000	0.0000
15:42:57	176.0000	87.0000	0.0000
15:42:57	170.0000	451.0000	0.0000
15:42:57	174.0000	416.0000	0.0000
15:42:57	175.0000	370.0000	0.0000
15:42:57	176.0000	336.0000	0.0000
15:42:57	169.0000	293.0000	0.0000
15:42:57	178.0000	272.0000	0.0000
15:42:57	171.0000	245.0000	0.0000
15:42:57	176.0000	227.0000	0.0000
15:42:57	177.0000	197.0000	0.0000
15:42:57	176.0000	192.0000	0.0000
15:42:57	179.0000	183.0000	0.0000
15:42:57	176.0000	162.0000	0.0000
15:42:57	173.0000	208.0000	0.0000
15:42:57	176.0000	187.0000	0.0000
15:42:57	177.0000	178.0000	0.0000
15:42:57	175.0000	145.0000	0.0000
15:42:57	178.0000	154.0000	0.0000
15:42:57	176.0000	139.0000	0.0000
15:42:57	173.0000	135.0000	0.0000
15:42:57	161.0000	112.0000	0.0000
15:42:57	176.0000	112.0000	0.0000
15:42:57	176.0000	114.0000	0.0000
15:42:57	176.0000	112.0000	0.0000
15:42:57	177.0000	114.0000	0.0000
15:42:57	174.0000	173.0000	0.0000
15:42:57	182.0000	177.0000	0.0000
15:42:57	176.0000	159.0000	0.0000
15:42:57	176.0000	156.0000	0.0000
15:42:57	173.0000	128.0000	0.0000
15:42:57	175.0000	130.0000	0.0000
15:42:57	158.0000	124.0000	0.0000
15:42:57	176.0000	118.0000	0.0000
15:42:57	166.0000	105.0000	0.0000
15:42:57	178.0000	112.0000	0.0000
15:42:57	176.0000	111.0000	0.0000
15:42:57	176.0000	106.0000	0.0000
15:42:57	173.0000	134.0000	0.0000
15:42:57	179.0000	135.0000	0.0000
15:42:57	175.0000	108.0000	0.0000
15:42:57	174.0000	128.0000	0.0000
15:42:57	175.0000	113.0000	0.0000
15:42:57	176.0000	110.0000	0.0000
15:42:57	172.0000	109.0000	0.0000
15:42:57	176.0000	106.0000	0.0000
15:42:57	176.0000	101.0000	0.0000
15:42:57	176.0000	100.0000	0.0000
15:42:57	176.0000	99.0000	0.0000
15:42:57	178.0000	90.0000	0.0000
15:42:57	178.0000	93.0000	0.0000
15:42:57	176.0000	96.0000	0.0000
15:42:57	175.0000	93.0000	0.0000
15:42:57	176.0000	93.0000	0.0000
15:42:57	176.0000	101.0000	0.0000
15:42:57	176.0000	89.0000	0.0000
15:42:57	165.0000	90.0000	0.0000
15:42:57	173.0000	89.0000	0.0000
15:42:57	175.0000	90.0000	0.0000
15:42:57	176.0000	96.0000	0.0000
15:42:57	176.0000	86.0000	0.0000
15:42:57	176.0000	90.0000	0.0000
15:42:57	176.0000	87.0000	0.0000
15:42:57	176.0000	87.0000	0.0000
15:42:57	173.0000	87.0000	0.0000
15:42:57	173.0000	84.0000	0.0000
15:42:57	173.0000	87.0000	0.0000
15:42:57	178.0000	100.0000	0.0000
15:42:57	173.0000	86.0000	0.0000
15:42:57	175.0000	87.0000	0.0000
15:42:57	164.0000	87.0000	0.0000
15:42:57	174.0000	86.0000	0.0000
15:42:57	175.0000	87.0000	0.0000
15:42:57	173.0000	87.0000	0.0000
15:42:57	171.0000	86.0000	0.0000
15:42:57	173.0000	87.0000	0.0000
15:42:57	163.0000	86.0000	0.0000
15:42:57	173.0000	87.0000	0.0000
15:42:57	174.0000	86.0000	0.0000
15:42:57	172.0000	85.0000	0.0000
15:42:57	177.0000	97.0000	0.0000
15:42:57	176.0000	86.0000	0.0000
15:42:57	176.0000	89.0000	0.0000
15:42:57	175.0000	87.0000	0.0000
15:42:57	176.0000	96.0000	0.0000
15:42:57	176.0000	89.0000	0.0000
15:42:57	176.0000	85.0000	0.0000
15:42:57	176.0000	84.0000	0.0000
15:42:57	177.0000	87.0000	0.0000
15:42:57	170.0000	83.0000	0.0000
15:42:57	176.0000	86.0000	0.0000
15:42:57	176.0000	85.0000	0.0000
15:42:57	176.0000	85.0000	0.0000
15:42:57	176.0000	91.0000	0.0000
15:42:57	175.0000	87.0000	0.0000
15:42:57	173.0000	85.0000	0.0000
15:42:57	174.0000	86.0000	0.0000
15:42:57	175.0000	96.0000	0.0000
15:42:57	175.0000	85.0000	0.0000
15:42:57	175.0000	85.0000	0.0000
15:42:57	175.0000	85.0000	0.0000
15:42:57	176.0000	85.0000	0.0000
15:42:57	169.0000	97.0000	0.0000
15:42:57	174.0000	84.0000	0.0000
15:42:57	173.0000	89.0000	0.0000
15:42:57	176.0000	86.0000	0.0000
15:42:57	176.0000	89.0000	0.0000
15:42:57	175.0000	87.0000	0.0000
15:42:57	175.0000	86.0000	0.0000
15:42:57	176.0000	87.0000	0.0000
15:42:57	183.0000	97.0000	0.0000
15:42:57	179.0000	83.0000	0.0000
15:42:57	176.0000	85.0000	0.0000
15:42:57	176.0000	85.0000	0.0000
15:42:57	176.0000	85.0000	0.0000
15:42:57	173.0000	89.0000	0.0000
15:42:57	176.0000	86.0000	0.0000
15:42:57	174.0000	86.0000	0.0000
15:42:57	176.0000	86.0000	0.0000
15:42:57	164.0000	78.0000	0.0000
15:42:57	173.0000	85.0000	0.0000
15:42:57	181.0000	86.0000	0.0000
15:42:57	176.0000	90.0000	0.0000
15:42:57	181.0000	100.0000	0.0000
15:42:57	173.0000	89.0000	0.0000
15:42:57	175.0000	93.0000	0.0000
15:42:57	175.0000	80.0000	0.0000
15:42:57	176.0000	83.0000	0.0000
15:42:57	170.0000	83.0000	0.0000
15:42:57	176.0000	85.0000	0.0000
15:42:57	151.0000	79.0000	0.0000
15:42:57	193.0000	85.0000	0.0000
15:42:57	169.0000	415.0000	0.0000
15:42:57	173.0000	383.0000	0.0000
15:42:57	176.0000	350.0000	0.0000
15:42:57	170.0000	306.0000	0.0000
15:42:57	177.0000	287.0000	0.0000
15:42:57	172.0000	240.0000	0.0000
15:42:57	171.0000	235.0000	0.0000
15:42:57	171.0000	208.0000	0.0000
15:42:57	171.0000	193.0000	0.0000
15:42:57	169.0000	164.0000	0.0000
15:42:57	174.0000	164.0000	0.0000
15:42:57	165.0000	149.0000	0.0000
15:42:57	176.0000	192.0000	0.0000
15:42:57	175.0000	180.0000	0.0000
15:42:57	167.0000	166.0000	0.0000
15:42:57	175.0000	161.0000	0.0000
15:42:57	166.0000	131.0000	0.0000
15:42:57	169.0000	144.0000	0.0000
15:42:57	172.0000	128.0000	0.0000
15:42:57	171.0000	123.0000	0.0000
15:42:57	167.0000	107.0000	0.0000
15:42:57	170.0000	112.0000	0.0000
15:42:57	166.0000	111.0000	0.0000
15:42:57	172.0000	110.0000	0.0000
15:42:57	171.0000	166.0000	0.0000
15:42:57	171.0000	170.0000	0.0000
15:42:57	175.0000	161.0000	0.0000
15:42:57	171.0000	142.0000	0.0000
15:42:57	176.0000	144.0000	0.0000
15:42:57	172.0000	113.0000	0.0000
15:42:57	171.0000	125.0000	0.0000
15:42:57	171.0000	118.0000	0.0000
15:42:57	171.0000	114.0000	0.0000
15:42:57	173.0000	99.0000	0.0000
15:42:57	176.0000	111.0000	0.0000
15:42:57	170.0000	103.0000	0.0000
15:42:57	169.0000	126.0000	0.0000
15:42:57	176.0000	127.0000	0.0000
15:42:57	171.0000	113.0000	0.0000
15:42:57	181.0000	118.0000	0.0000
15:42:57	176.0000	93.0000	0.0000
15:42:57	175.0000	104.0000	0.0000
15:42:57	171.0000	106.0000	0.0000
15:42:57	161.0000	97.0000	0.0000
15:42:57	166.0000	83.0000	0.0000
15:42:57	174.0000	97.0000	0.0000
15:42:57	165.0000	91.0000	0.0000
15:42:57	174.0000	94.0000	0.0000
15:42:57	160.0000	81.0000	0.0000
15:42:57	173.0000	94.0000	0.0000
15:42:57	163.0000	91.0000	0.0000
15:42:57	176.0000	96.0000	0.0000
15:42:57	173.0000	80.0000	0.0000
15:42:57	176.0000	80.0000	0.0000
15:42:57	176.0000	97.0000	0.0000
15:42:57	173.0000	94.0000	0.0000
15:42:57	167.0000	100.0000	0.0000
15:42:57	167.0000	76.0000	0.0000
15:42:57	171.0000	87.0000	0.0000
15:42:57	167.0000	92.0000	0.0000
15:42:57	170.0000	88.0000	0.0000
15:42:57	163.0000	78.0000	0.0000
15:42:57	170.0000	99.0000	0.0000
15:42:57	163.0000	84.0000	0.0000
15:42:57	171.0000	88.0000	0.0000
15:42:57	174.0000	78.0000	0.0000
15:42:57	174.0000	78.0000	0.0000
15:42:57	176.0000	96.0000	0.0000
15:42:57	173.0000	83.0000	0.0000
15:42:57	177.0000	96.0000	0.0000
15:42:57	173.0000	77.0000	0.0000
15:42:57	175.0000	96.0000	0.0000
15:42:57	186.0000	87.0000	0.0000
15:42:57	175.0000	83.0000	0.0000
15:42:57	174.0000	79.0000	0.0000
15:42:57	201.0000	87.0000	0.0000
15:42:57	171.0000	85.0000	0.0000
15:42:57	176.0000	85.0000	0.0000
15:42:57	155.0000	74.0000	0.0000
15:42:57	176.0000	78.0000	0.0000
15:42:57	176.0000	86.0000	0.0000
15:42:57	175.0000	86.0000	0.0000
15:42:57	176.0000	96.0000	0.0000
15:42:57	173.0000	74.0000	0.0000
15:42:57	181.0000	95.0000	0.0000
15:42:57	174.0000	85.0000	0.0000
15:42:58	176.0000	96.0000	0.0000
15:42:58	172.0000	76.0000	0.0000
15:42:58	177.0000	87.0000	0.0000
15:42:58	174.0000	87.0000	0.0000
15:42:58	176.0000	84.0000	0.0000
15:42:58	168.0000	76.0000	0.0000
15:42:58	176.0000	79.0000	0.0000
15:42:58	176.0000	87.0000	0.0000
15:42:58	175.0000	90.0000	0.0000
15:42:58	173.0000	82.0000	0.0000
15:42:58	175.0000	106.0000	0.0000
15:42:58	175.0000	93.0000	0.0000
15:42:58	176.0000	95.0000	0.0000
15:42:58	178.0000	97.0000	0.0000
15:42:58	176.0000	91.0000	0.0000
15:42:58	174.0000	89.0000	0.0000
15:42:58	176.0000	91.0000	0.0000
15:42:58	176.0000	87.0000	0.0000
15:42:58	177.0000	89.0000	0.0000
15:42:58	178.0000	99.0000	0.0000
15:42:58	176.0000	87.0000	0.0000
15:42:58	178.0000	97.0000	0.0000
15:42:58	176.0000	75.0000	0.0000
15:42:58	175.0000	99.0000	0.0000
15:42:58	185.0000	90.0000	0.0000
15:42:58	177.0000	87.0000	0.0000
15:42:58	173.0000	80.0000	0.0000
15:42:58	176.0000	89.0000	0.0000
15:42:58	171.0000	83.0000	0.0000
15:42:58	176.0000	87.0000	0.0000
15:42:58	158.0000	78.0000	0.0000
15:42:58	176.0000	80.0000	0.0000
15:42:58	176.0000	87.0000	0.0000
15:42:58	175.0000	89.0000	0.0000
15:42:58	177.0000	95.0000	0.0000
15:42:58	175.0000	75.0000	0.0000
15:42:58	181.0000	96.0000	0.0000
15:42:58	176.0000	88.0000	0.0000
15:42:58	176.0000	96.0000	0.0000
15:42:58	176.0000	87.0000	0.0000
15:42:58	176.0000	85.0000	0.0000
15:42:58	176.0000	84.0000	0.0000
15:42:58	177.0000	89.0000	0.0000
15:42:58	166.0000	76.0000	0.0000
15:42:58	176.0000	86.0000	0.0000
15:42:58	176.0000	83.0000	0.0000
15:42:58	163.0000	85.0000	0.0000
15:42:58	176.0000	87.0000	0.0000
15:42:58	174.0000	84.0000	0.0000
15:42:58	181.0000	94.0000	0.0000
15:42:58	175.0000	83.0000	0.0000
15:42:58	175.0000	97.0000	0.0000
15:42:58	176.0000	76.0000	0.0000
15:42:58	175.0000	86.0000	0.0000
15:42:58	172.0000	84.0000	0.0000
15:42:58	175.0000	84.0000	0.0000
15:42:58	166.0000	77.0000	0.0000
15:42:58	176.0000	90.0000	0.0000
15:42:58	170.0000	83.0000	0.0000
15:42:58	175.0000	86.0000	0.0000
15:42:58	176.0000	80.0000	0.0000
15:42:58	176.0000	77.0000	0.0000
15:42:58	175.0000	96.0000	0.0000
15:42:58	173.0000	86.0000	0.0000
15:42:58	178.0000	96.0000	0.0000
15:42:58	176.0000	86.0000	0.0000
15:42:58	171.0000	93.0000	0.0000
15:42:58	171.0000	86.0000	0.0000
15:42:58	174.0000	83.0000	0.0000
15:42:58	171.0000	73.0000	0.0000
15:42:58	193.0000	87.0000	0.0000
15:42:58	170.0000	81.0000	0.0000
15:42:58	173.0000	85.0000	0.0000
15:42:58	162.0000	74.0000	0.0000
15:42:58	174.0000	85.0000	0.0000
15:42:58	176.0000	95.0000	0.0000
15:42:58	175.0000	85.0000	0.0000
15:42:58	175.0000	93.0000	0.0000
15:42:58	174.0000	71.0000	0.0000
15:42:58	176.0000	96.0000	0.0000
15:42:58	176.0000	85.0000	0.0000
15:42:58	176.0000	92.0000	0.0000
15:42:58	176.0000	86.0000	0.0000
15:42:58	175.0000	86.0000	0.0000
15:42:58	176.0000	81.0000	0.0000
15:42:58	175.0000	92.0000	0.0000
15:42:58	161.0000	74.0000	0.0000
15:42:58	176.0000	91.0000	0.0000
15:42:58	176.0000	86.0000	0.0000
15:42:58	178.0000	86.0000	0.0000
15:42:58	177.0000	98.0000	0.0000
15:42:58	176.0000	86.0000	0.0000
15:42:58	165.0000	97.0000	0.0000
15:42:58	174.0000	89.0000	0.0000
15:42:58	176.0000	97.0000	0.0000
15:42:58	176.0000	76.0000	0.0000
15:42:58	179.0000	81.0000	0.0000
15:42:58	176.0000	84.0000	0.0000
15:42:58	176.0000	87.0000	0.0000
15:42:58	174.0000	77.0000	0.0000
15:42:58	176.0000	87.0000	0.0000
15:42:58	167.0000	87.0000	0.0000
15:42:58	178.0000	89.0000	0.0000
15:42:58	176.0000	77.0000	0.0000
15:42:58	175.0000	78.0000	0.0000
15:42:58	180.0000	96.0000	0.0000
15:42:58	177.0000	85.0000	0.0000
15:42:58	187.0000	96.0000	0.0000
15:42:58	176.0000	77.0000	0.0000
15:42:58	176.0000	86.0000	0.0000
15:42:58	176.0000	89.0000	0.0000
15:42:58	177.0000	90.0000	0.0000
15:42:58	175.0000	75.0000	0.0000
15:42:58	176.0000	90.0000	0.0000
15:42:58	174.0000	83.0000	0.0000
15:42:58	176.0000	88.0000	0.0000
15:42:58	181.0000	87.0000	0.0000
15:42:58	176.0000	87.0000	0.0000
15:42:58	177.0000	97.0000	0.0000
15:42:58	176.0000	87.0000	0.0000
15:42:58	178.0000	98.0000	0.0000
15:42:58	175.0000	80.0000	0.0000
15:42:58	176.0000	94.0000	0.0000
15:42:58	163.0000	90.0000	0.0000
15:42:58	176.0000	85.0000	0.0000
15:42:58	173.0000	75.0000	0.0000
15:42:58	202.0000	87.0000	0.0000
15:42:58	171.0000	83.0000	0.0000
15:42:58	176.0000	88.0000	0.0000
15:42:58	178.0000	83.0000	0.0000
15:42:58	176.0000	87.0000	0.0000
15:42:58	177.0000	95.0000	0.0000
15:42:58	174.0000	85.0000	0.0000
15:42:58	176.0000	80.0000	0.0000
15:42:58	176.0000	85.0000	0.0000
15:42:58	175.0000	95.0000	0.0000
15:42:58	176.0000	86.0000	0.0000
15:42:58	174.0000	82.0000	0.0000
15:42:58	173.0000	88.0000	0.0000
15:42:58	174.0000	84.0000	0.0000
15:42:58	172.0000	90.0000	0.0000
15:42:58	176.0000	87.0000	0.0000
15:42:58	173.0000	83.0000	0.0000
15:42:58	172.0000	83.0000	0.0000
15:42:58	166.0000	82.0000	0.0000
15:42:58	174.0000	86.0000	0.0000
15:42:58	174.0000	85.0000	0.0000
15:42:58	176.0000	83.0000	0.0000
15:42:58	177.0000	95.0000	0.0000
15:42:58	175.0000	83.0000	0.0000
15:42:58	174.0000	81.0000	0.0000
15:42:58	176.0000	85.0000	0.0000
15:42:58	176.0000	85.0000	0.0000
15:42:58	182.0000	85.0000	0.0000
15:42:58	174.0000	87.0000	0.0000
15:42:58	174.0000	85.0000	0.0000
15:42:58	176.0000	82.0000	0.0000
15:42:58	167.0000	82.0000	0.0000
15:42:58	174.0000	84.0000	0.0000
15:42:58	175.0000	85.0000	0.0000
15:42:58	173.0000	87.0000	0.0000
15:42:58	176.0000	96.0000	0.0000
15:42:58	171.0000	90.0000	0.0000
15:42:58	174.0000	85.0000	0.0000
15:42:58	175.0000	85.0000	0.0000
15:42:58	175.0000	97.0000	0.0000
15:42:58	174.0000	87.0000	0.0000
15:42:58	176.0000	85.0000	0.0000
15:42:58	174.0000	84.0000	0.0000
15:42:58	174.0000	87.0000	0.0000
15:42:58	170.0000	83.0000	0.0000
15:42:58	174.0000	86.0000	0.0000
15:42:58	171.0000	86.0000	0.0000
15:42:58	176.0000	87.0000	0.0000
15:42:58	174.0000	85.0000	0.0000
15:42:58	171.0000	84.0000	0.0000
15:42:58	173.0000	86.0000	0.0000
15:42:58	175.0000	84.0000	0.0000
15:42:58	181.0000	95.0000	0.0000
15:42:58	173.0000	89.0000	0.0000
15:42:58	174.0000	85.0000	0.0000
15:42:58	173.0000	85.0000	0.0000
15:42:58	171.0000	87.0000	0.0000
15:42:58	174.0000	86.0000	0.0000
15:42:58	172.0000	85.0000	0.0000
15:42:58	175.0000	85.0000	0.0000
15:42:58	173.0000	82.0000	0.0000
15:42:58	167.0000	82.0000	0.0000
15:42:58	172.0000	85.0000	0.0000
15:42:58	174.0000	82.0000	0.0000
15:42:58	174.0000	83.0000	0.0000
15:42:58	176.0000	94.0000	0.0000
15:42:58	171.0000	84.0000	0.0000
15:42:58	175.0000	83.0000	0.0000
15:42:58	175.0000	86.0000	0.0000
15:42:58	175.0000	90.0000	0.0000
15:42:58	176.0000	89.0000	0.0000
15:42:58	174.0000	84.0000	0.0000
15:42:58	173.0000	82.0000	0.0000
15:42:58	176.0000	84.0000	0.0000
15:42:58	170.0000	82.0000	0.0000
15:42:58	176.0000	84.0000	0.0000
15:42:58	174.0000	86.0000	0.0000
15:42:58	174.0000	84.0000	0.0000
15:42:58	176.0000	96.0000	0.0000
15:42:58	173.0000	83.0000	0.0000
15:42:58	176.0000	83.0000	0.0000
15:42:58	175.0000	85.0000	0.0000
15:42:58	176.0000	98.0000	0.0000
15:42:58	174.0000	85.0000	0.0000
15:42:58	174.0000	86.0000	0.0000
15:42:58	174.0000	80.0000	0.0000
15:42:58	176.0000	83.0000	0.0000
15:42:58	173.0000	79.0000	0.0000
15:42:58	175.0000	85.0000	0.0000
15:42:58	159.0000	78.0000	0.0000
15:42:58	175.0000	90.0000	0.0000
15:42:58	176.0000	85.0000	0.0000
15:42:58	175.0000	85.0000	0.0000
15:42:58	174.0000	90.0000	0.0000
15:42:58	174.0000	83.0000	0.0000
15:42:58	182.0000	95.0000	0.0000
15:42:58	160.0000	82.0000	0.0000
15:42:58	172.0000	92.0000	0.0000
15:42:58	175.0000	94.0000	0.0000
15:42:58	165.0000	91.0000	0.0000
15:42:58	176.0000	94.0000	0.0000
15:42:58	173.0000	91.0000	0.0000
15:42:58	174.0000	91.0000	0.0000
15:42:58	178.0000	98.0000	0.0000
15:42:58	173.0000	89.0000	0.0000
15:42:58	174.0000	87.0000	0.0000
15:42:58	176.0000	89.0000	0.0000
15:42:58	176.0000	92.0000	0.0000
15:42:58	174.0000	88.0000	0.0000
15:42:58	176.0000	86.0000	0.0000
15:42:58	174.0000	89.0000	0.0000
15:42:58	173.0000	86.0000	0.0000
15:42:58	169.0000	83.0000	0.0000
15:42:58	174.0000	86.0000	0.0000
15:42:58	174.0000	85.0000	0.0000
15:42:58	174.0000	88.0000	0.0000
15:42:58	176.0000	96.0000	0.0000
15:42:58	171.0000	87.0000	0.0000
15:42:58	173.0000	85.0000	0.0000
15:42:58	174.0000	86.0000	0.0000
15:42:58	175.0000	101.0000	0.0000
15:42:58	173.0000	88.0000	0.0000
15:42:58	173.0000	90.0000	0.0000
15:42:58	174.0000	88.0000	0.0000
15:42:58	172.0000	91.0000	0.0000
15:42:58	174.0000	84.0000	0.0000
15:42:58	173.0000	86.0000	0.0000
15:42:58	176.0000	99.0000	0.0000
15:42:58	173.0000	78.0000	0.0000
15:42:58	173.0000	92.0000	0.0000
15:42:58	163.0000	359.0000	0.0000
15:42:58	166.0000	335.0000	0.0000
15:42:58	166.0000	302.0000	0.0000
15:42:58	169.0000	272.0000	0.0000
15:42:58	146.0000	236.0000	0.0000
15:42:58	173.0000	229.0000	0.0000
15:42:58	171.0000	208.0000	0.0000
15:42:58	169.0000	190.0000	0.0000
15:42:58	176.0000	182.0000	0.0000
15:42:58	169.0000	153.0000	0.0000
15:42:58	171.0000	164.0000	0.0000
15:42:58	171.0000	142.0000	0.0000
15:42:58	169.0000	182.0000	0.0000
15:42:58	164.0000	167.0000	0.0000
15:42:58	171.0000	157.0000	0.0000
15:42:58	172.0000	146.0000	0.0000
15:42:58	170.0000	144.0000	0.0000
15:42:58	176.0000	131.0000	0.0000
15:42:58	170.0000	126.0000	0.0000
15:42:58	178.0000	129.0000	0.0000
15:42:58	171.0000	102.0000	0.0000
15:42:58	171.0000	111.0000	0.0000
15:42:58	173.0000	108.0000	0.0000
15:42:58	174.0000	106.0000	0.0000
15:42:58	170.0000	165.0000	0.0000
15:42:58	174.0000	165.0000	0.0000
15:42:58	174.0000	150.0000	0.0000
15:42:58	175.0000	145.0000	0.0000
15:42:58	163.0000	127.0000	0.0000
15:42:58	176.0000	133.0000	0.0000
15:42:58	173.0000	124.0000	0.0000
15:42:58	172.0000	119.0000	0.0000
15:42:58	175.0000	112.0000	0.0000
15:42:58	173.0000	123.0000	0.0000
15:42:58	179.0000	114.0000	0.0000
15:42:58	174.0000	105.0000	0.0000
15:42:58	170.0000	135.0000	0.0000
15:42:58	179.0000	135.0000	0.0000
15:42:58	171.0000	114.0000	0.0000
15:42:58	172.0000	128.0000	0.0000
15:42:58	171.0000	117.0000	0.0000
15:42:58	170.0000	114.0000	0.0000
15:42:58	171.0000	95.0000	0.0000
15:42:58	169.0000	101.0000	0.0000
15:42:58	170.0000	102.0000	0.0000
15:42:58	173.0000	102.0000	0.0000
15:42:58	157.0000	83.0000	0.0000
15:42:58	192.0000	97.0000	0.0000
15:42:58	170.0000	103.0000	0.0000
15:42:58	179.0000	111.0000	0.0000
15:42:58	176.0000	85.0000	0.0000
15:42:58	171.0000	97.0000	0.0000
15:42:58	167.0000	101.0000	0.0000
15:42:58	167.0000	94.0000	0.0000
15:42:58	163.0000	80.0000	0.0000
15:42:58	173.0000	99.0000	0.0000
15:42:58	162.0000	94.0000	0.0000
15:42:58	167.0000	93.0000	0.0000
15:42:58	172.0000	80.0000	0.0000
15:42:58	170.0000	80.0000	0.0000
15:42:58	173.0000	98.0000	0.0000
15:42:58	170.0000	87.0000	0.0000
15:42:58	175.0000	98.0000	0.0000
15:42:58	173.0000	75.0000	0.0000
15:42:58	172.0000	96.0000	0.0000
15:42:58	167.0000	85.0000	0.0000
15:42:58	174.0000	85.0000	0.0000
15:42:58	167.0000	78.0000	0.0000
15:42:58	170.0000	85.0000	0.0000
15:42:58	165.0000	83.0000	0.0000
15:42:58	169.0000	86.0000	0.0000
15:42:58	171.0000	80.0000	0.0000
15:42:58	170.0000	91.0000	0.0000
15:42:58	169.0000	91.0000	0.0000
15:42:58	167.0000	83.0000	0.0000
15:42:58	175.0000	91.0000	0.0000
15:42:58	167.0000	83.0000	0.0000
15:42:58	165.0000	94.0000	0.0000
15:42:58	176.0000	83.0000	0.0000
15:42:58	166.0000	90.0000	0.0000
15:42:58	165.0000	97.0000	0.0000
15:42:58	167.0000	91.0000	0.0000
15:42:58	173.0000	94.0000	0.0000
15:42:58	171.0000	80.0000	0.0000
15:42:58	169.0000	90.0000	0.0000
15:42:58	172.0000	100.0000	0.0000
15:42:58	170.0000	85.0000	0.0000
15:42:58	170.0000	87.0000	0.0000
15:42:58	170.0000	86.0000	0.0000
15:42:58	170.0000	97.0000	0.0000
15:42:58	167.0000	89.0000	0.0000
15:42:58	170.0000	82.0000	0.0000
15:42:58	170.0000	86.0000	0.0000
15:42:58	171.0000	86.0000	0.0000
15:42:58	163.0000	81.0000	0.0000
15:42:58	170.0000	85.0000	0.0000
15:42:58	166.0000	82.0000	0.0000
15:42:58	171.0000	85.0000	0.0000
15:42:58	173.0000	94.0000	0.0000
15:42:58	167.0000	86.0000	0.0000
15:42:58	171.0000	83.0000	0.0000
15:42:58	167.0000	85.0000	0.0000
15:42:58	172.0000	96.0000	0.0000
15:42:58	169.0000	88.0000	0.0000
15:42:58	167.0000	80.0000	0.0000
15:42:58	171.0000	85.0000	0.0000
15:42:58	174.0000	84.0000	0.0000
15:42:58	170.0000	89.0000	0.0000
15:42:58	167.0000	86.0000	0.0000
15:42:58	170.0000	86.0000	0.0000
15:42:58	173.0000	84.0000	0.0000
15:42:58	173.0000	84.0000	0.0000
15:42:58	176.0000	84.0000	0.0000
15:42:58	173.0000	86.0000	0.0000
15:42:58	173.0000	84.0000	0.0000
15:42:58	180.0000	96.0000	0.0000
15:42:58	175.0000	83.0000	0.0000
15:42:58	172.0000	84.0000	0.0000
15:42:58	176.0000	83.0000	0.0000
15:42:58	173.0000	85.0000	0.0000
15:42:58	174.0000	85.0000	0.0000
15:42:58	176.0000	85.0000	0.0000
15:42:58	176.0000	86.0000	0.0000
15:42:58	176.0000	86.0000	0.0000
15:42:58	169.0000	83.0000	0.0000
15:42:58	176.0000	85.0000	0.0000
15:42:58	176.0000	86.0000	0.0000
15:42:58	173.0000	91.0000	0.0000
15:42:58	176.0000	98.0000	0.0000
15:42:58	175.0000	90.0000	0.0000
15:42:58	173.0000	86.0000	0.0000
15:42:58	173.0000	86.0000	0.0000
15:42:58	158.0000	98.0000	0.0000
15:42:58	171.0000	85.0000	0.0000
15:42:58	171.0000	80.0000	0.0000
15:42:58	173.0000	86.0000	0.0000
15:42:58	173.0000	85.0000	0.0000
15:42:58	168.0000	82.0000	0.0000
15:42:58	173.0000	91.0000	0.0000
15:42:58	174.0000	85.0000	0.0000
15:42:58	176.0000	85.0000	0.0000
15:42:58	176.0000	89.0000	0.0000
15:42:58	173.0000	87.0000	0.0000
15:42:58	176.0000	87.0000	0.0000
15:42:58	173.0000	86.0000	0.0000
15:42:58	174.0000	96.0000	0.0000
15:42:58	176.0000	87.0000	0.0000
15:42:58	175.0000	87.0000	0.0000
15:42:58	175.0000	85.0000	0.0000
15:42:58	175.0000	86.0000	0.0000
15:42:58	174.0000	87.0000	0.0000
15:42:58	176.0000	86.0000	0.0000
15:42:58	176.0000	89.0000	0.0000
15:42:58	176.0000	86.0000	0.0000
15:42:58	176.0000	85.0000	0.0000
15:42:58	176.0000	87.0000	0.0000
15:42:58	176.0000	86.0000	0.0000
15:42:58	176.0000	85.0000	0.0000
15:42:58	189.0000	96.0000	0.0000
15:42:58	176.0000	84.0000	0.0000
15:42:58	176.0000	87.0000	0.0000
15:42:58	176.0000	86.0000	0.0000
15:42:58	176.0000	86.0000	0.0000
15:42:58	176.0000	91.0000	0.0000
15:42:58	176.0000	86.0000	0.0000
15:42:58	176.0000	87.0000	0.0000
15:42:58	176.0000	86.0000	0.0000
15:42:58	174.0000	84.0000	0.0000
15:42:58	176.0000	87.0000	0.0000
15:42:58	174.0000	83.0000	0.0000
15:42:58	177.0000	90.0000	0.0000
15:42:58	177.0000	96.0000	0.0000
15:42:58	177.0000	85.0000	0.0000
15:42:58	166.0000	87.0000	0.0000
15:42:58	174.0000	86.0000	0.0000
15:42:58	175.0000	91.0000	0.0000
15:42:58	176.0000	85.0000	0.0000
15:42:58	174.0000	85.0000	0.0000
15:42:58	176.0000	86.0000	0.0000
15:42:58	175.0000	85.0000	0.0000
15:42:58	172.0000	82.0000	0.0000
15:42:58	176.0000	85.0000	0.0000
15:42:58	174.0000	86.0000	0.0000
15:42:58	176.0000	85.0000	0.0000
15:42:58	175.0000	85.0000	0.0000
15:42:58	174.0000	87.0000	0.0000
15:42:58	174.0000	85.0000	0.0000
15:42:58	175.0000	85.0000	0.0000
15:42:58	176.0000	94.0000	0.0000
15:42:58	175.0000	91.0000	0.0000
15:42:58	175.0000	93.0000	0.0000
15:42:58	171.0000	80.0000	0.0000
15:42:58	178.0000	86.0000	0.0000
15:42:58	165.0000	87.0000	0.0000
15:42:58	170.0000	83.0000	0.0000
15:42:58	175.0000	91.0000	0.0000
15:42:58	173.0000	79.0000	0.0000
15:42:58	176.0000	93.0000	0.0000
15:42:58	174.0000	84.0000	0.0000
15:42:58	169.0000	433.0000	0.0000
15:42:58	173.0000	390.0000	0.0000
15:42:58	173.0000	349.0000	0.0000
15:42:58	174.0000	315.0000	0.0000
15:42:58	173.0000	284.0000	0.0000
15:42:58	174.0000	256.0000	0.0000
15:42:58	171.0000	236.0000	0.0000
15:42:58	163.0000	209.0000	0.0000
15:42:58	172.0000	195.0000	0.0000
15:42:58	159.0000	177.0000	0.0000
15:42:58	171.0000	167.0000	0.0000
15:42:58	177.0000	164.0000	0.0000
15:42:58	176.0000	147.0000	0.0000
15:42:58	173.0000	142.0000	0.0000
15:42:58	173.0000	131.0000	0.0000
15:42:58	176.0000	127.0000	0.0000
15:42:58	173.0000	120.0000	0.0000
15:42:58	176.0000	117.0000	0.0000
15:42:58	173.0000	113.0000	0.0000
15:42:58	173.0000	107.0000	0.0000
15:42:58	176.0000	115.0000	0.0000
15:42:58	166.0000	381.0000	0.0000
15:42:58	176.0000	355.0000	0.0000
15:42:58	168.0000	318.0000	0.0000
15:42:58	176.0000	289.0000	0.0000
15:42:58	176.0000	250.0000	0.0000
15:42:58	173.0000	240.0000	0.0000
15:42:58	177.0000	224.0000	0.0000
15:42:58	178.0000	199.0000	0.0000
15:42:58	180.0000	192.0000	0.0000
15:42:58	174.0000	157.0000	0.0000
15:42:58	174.0000	155.0000	0.0000
15:42:58	176.0000	147.0000	0.0000
15:42:58	175.0000	188.0000	0.0000
15:42:58	176.0000	175.0000	0.0000
15:42:58	175.0000	164.0000	0.0000
15:42:58	176.0000	160.0000	0.0000
15:42:58	182.0000	135.0000	0.0000
15:42:58	176.0000	142.0000	0.0000
15:42:58	173.0000	128.0000	0.0000
15:42:58	182.0000	128.0000	0.0000
15:42:58	174.0000	106.0000	0.0000
15:42:58	175.0000	112.0000	0.0000
15:42:58	176.0000	112.0000	0.0000
15:42:58	177.0000	107.0000	0.0000
15:42:58	163.0000	166.0000	0.0000
15:42:58	177.0000	167.0000	0.0000
15:42:58	171.0000	151.0000	0.0000
15:42:58	176.0000	145.0000	0.0000
15:42:58	176.0000	128.0000	0.0000
15:42:58	176.0000	131.0000	0.0000
15:42:58	177.0000	132.0000	0.0000
15:42:58	176.0000	117.0000	0.0000
15:42:58	182.0000	121.0000	0.0000
15:42:58	175.0000	102.0000	0.0000
15:42:58	176.0000	112.0000	0.0000
15:42:58	185.0000	105.0000	0.0000
15:42:58	177.0000	122.0000	0.0000
15:42:58	174.0000	115.0000	0.0000
15:42:58	176.0000	112.0000	0.0000
15:42:58	169.0000	99.0000	0.0000
15:42:58	176.0000	111.0000	0.0000
15:42:58	176.0000	108.0000	0.0000
15:42:58	173.0000	107.0000	0.0000
15:42:58	176.0000	111.0000	0.0000
15:42:58	175.0000	109.0000	0.0000
15:42:58	192.0000	109.0000	0.0000
15:42:58	176.0000	99.0000	0.0000
15:42:58	178.0000	107.0000	0.0000
15:42:58	193.0000	102.0000	0.0000
15:42:58	178.0000	100.0000	0.0000
15:42:58	177.0000	97.0000	0.0000
15:42:58	178.0000	107.0000	0.0000
15:42:58	176.0000	87.0000	0.0000
15:42:58	178.0000	105.0000	0.0000
15:42:58	176.0000	95.0000	0.0000
15:42:58	177.0000	105.0000	0.0000
15:42:58	177.0000	80.0000	0.0000
15:42:58	182.0000	94.0000	0.0000
15:42:58	175.0000	90.0000	0.0000
15:42:58	176.0000	91.0000	0.0000
15:42:58	172.0000	86.0000	0.0000
15:42:58	172.0000	99.0000	0.0000
15:42:58	176.0000	108.0000	0.0000
15:42:58	176.0000	83.0000	0.0000
15:42:58	176.0000	86.0000	0.0000
15:42:58	178.0000	105.0000	0.0000
15:42:58	175.0000	96.0000	0.0000
15:42:58	181.0000	103.0000	0.0000
15:42:58	176.0000	81.0000	0.0000
15:42:58	177.0000	99.0000	0.0000
15:42:58	176.0000	89.0000	0.0000
15:42:58	176.0000	89.0000	0.0000
15:42:58	174.0000	79.0000	0.0000
15:42:58	176.0000	87.0000	0.0000
15:42:58	171.0000	84.0000	0.0000
15:42:58	176.0000	89.0000	0.0000
15:42:58	170.0000	80.0000	0.0000
15:42:58	176.0000	87.0000	0.0000
15:42:58	173.0000	96.0000	0.0000
15:42:58	174.0000	87.0000	0.0000
15:42:58	176.0000	90.0000	0.0000
15:42:58	161.0000	86.0000	0.0000
15:42:58	176.0000	98.0000	0.0000
15:42:58	183.0000	87.0000	0.0000
15:42:58	176.0000	87.0000	0.0000
15:42:58	173.0000	80.0000	0.0000
15:42:58	176.0000	92.0000	0.0000
15:42:58	175.0000	85.0000	0.0000
15:42:58	176.0000	88.0000	0.0000
15:42:58	158.0000	76.0000	0.0000
15:42:58	174.0000	80.0000	0.0000
15:42:58	176.0000	85.0000	0.0000
15:42:58	175.0000	87.0000	0.0000
15:42:58	176.0000	96.0000	0.0000
15:42:58	176.0000	85.0000	0.0000
15:42:58	176.0000	97.0000	0.0000
15:42:58	171.0000	94.0000	0.0000
15:42:58	175.0000	85.0000	0.0000
15:42:58	175.0000	77.0000	0.0000
15:42:58	176.0000	86.0000	0.0000
15:42:58	172.0000	85.0000	0.0000
15:42:58	177.0000	89.0000	0.0000
15:42:58	160.0000	74.0000	0.0000
15:42:58	163.0000	85.0000	0.0000
15:42:58	176.0000	87.0000	0.0000
15:42:58	180.0000	87.0000	0.0000
15:42:58	176.0000	86.0000	0.0000
15:42:58	176.0000	90.0000	0.0000
15:42:58	183.0000	98.0000	0.0000
15:42:58	176.0000	89.0000	0.0000
15:42:58	177.0000	98.0000	0.0000
15:42:58	177.0000	77.0000	0.0000
15:42:58	176.0000	87.0000	0.0000
15:42:58	175.0000	87.0000	0.0000
15:42:58	176.0000	86.0000	0.0000
15:42:58	170.0000	78.0000	0.0000
15:42:58	177.0000	93.0000	0.0000
15:42:58	171.0000	86.0000	0.0000
15:42:58	176.0000	91.0000	0.0000
15:42:58	177.0000	80.0000	0.0000
15:42:58	174.0000	89.0000	0.0000
15:42:58	179.0000	102.0000	0.0000
15:42:58	176.0000	89.0000	0.0000
15:42:58	183.0000	98.0000	0.0000
15:42:58	176.0000	80.0000	0.0000
15:42:58	175.0000	89.0000	0.0000
15:42:58	176.0000	85.0000	0.0000
15:42:58	176.0000	92.0000	0.0000
15:42:58	176.0000	76.0000	0.0000
15:42:58	176.0000	87.0000	0.0000
15:42:58	170.0000	85.0000	0.0000
15:42:58	177.0000	87.0000	0.0000
15:42:58	162.0000	76.0000	0.0000
15:42:58	176.0000	79.0000	0.0000
15:42:58	182.0000	90.0000	0.0000
15:42:58	176.0000	90.0000	0.0000
15:42:58	177.0000	100.0000	0.0000
15:42:58	176.0000	86.0000	0.0000
15:42:58	175.0000	98.0000	0.0000
15:42:58	175.0000	87.0000	0.0000
15:42:58	176.0000	90.0000	0.0000
15:42:58	176.0000	87.0000	0.0000
15:42:58	174.0000	100.0000	0.0000
15:42:58	175.0000	87.0000	0.0000
15:42:58	176.0000	87.0000	0.0000
15:42:58	176.0000	86.0000	0.0000
15:42:58	176.0000	88.0000	0.0000
15:42:58	173.0000	86.0000	0.0000
15:42:58	176.0000	87.0000	0.0000
15:42:58	177.0000	87.0000	0.0000
15:42:58	178.0000	92.0000	0.0000
15:42:58	177.0000	89.0000	0.0000
15:42:58	176.0000	90.0000	0.0000
15:42:58	178.0000	97.0000	0.0000
15:42:58	178.0000	79.0000	0.0000
15:42:58	177.0000	100.0000	0.0000
15:42:58	176.0000	89.0000	0.0000
15:42:58	177.0000	99.0000	0.0000
15:42:58	176.0000	80.0000	0.0000
15:42:58	178.0000	87.0000	0.0000
15:42:58	176.0000	86.0000	0.0000
15:42:58	178.0000	91.0000	0.0000
15:42:58	166.0000	77.0000	0.0000
15:42:58	176.0000	89.0000	0.0000
15:42:58	175.0000	84.0000	0.0000
15:42:58	177.0000	90.0000	0.0000
15:42:58	176.0000	78.0000	0.0000
15:42:58	176.0000	78.0000	0.0000
15:42:58	184.0000	99.0000	0.0000
15:42:58	179.0000	87.0000	0.0000
15:42:58	181.0000	97.0000	0.0000
15:42:58	176.0000	80.0000	0.0000
15:42:58	176.0000	100.0000	0.0000
15:42:58	176.0000	86.0000	0.0000
15:42:58	177.0000	89.0000	0.0000
15:42:58	176.0000	79.0000	0.0000
15:42:58	206.0000	91.0000	0.0000
15:42:58	173.0000	83.0000	0.0000
15:42:58	176.0000	86.0000	0.0000
15:42:58	160.0000	76.0000	0.0000
15:42:58	177.0000	88.0000	0.0000
15:42:58	178.0000	98.0000	0.0000
15:42:58	176.0000	87.0000	0.0000
15:42:58	176.0000	98.0000	0.0000
15:42:58	176.0000	109.0000	0.0000
15:42:58	178.0000	94.0000	0.0000
15:42:58	176.0000	99.0000	0.0000
15:42:58	176.0000	83.0000	0.0000
15:42:58	179.0000	98.0000	0.0000
15:42:58	177.0000	90.0000	0.0000
15:42:58	176.0000	96.0000	0.0000
15:42:58	165.0000	80.0000	0.0000
15:42:58	176.0000	80.0000	0.0000
15:42:58	176.0000	91.0000	0.0000
15:42:58	173.0000	92.0000	0.0000
15:42:58	168.0000	102.0000	0.0000
15:42:58	175.0000	89.0000	0.0000
15:42:58	176.0000	99.0000	0.0000
15:42:58	176.0000	89.0000	0.0000
15:42:58	174.0000	97.0000	0.0000
15:42:58	174.0000	79.0000	0.0000
15:42:58	176.0000	85.0000	0.0000
15:42:58	176.0000	86.0000	0.0000
15:42:58	175.0000	87.0000	0.0000
15:42:58	163.0000	77.0000	0.0000
15:42:58	176.0000	91.0000	0.0000
15:42:58	163.0000	85.0000	0.0000
15:42:58	173.0000	87.0000	0.0000
15:42:58	171.0000	87.0000	0.0000
15:42:58	174.0000	86.0000	0.0000
15:42:58	182.0000	99.0000	0.0000
15:42:58	171.0000	85.0000	0.0000
15:42:58	174.0000	85.0000	0.0000
15:42:58	173.0000	81.0000	0.0000
15:42:58	173.0000	89.0000	0.0000
15:42:58	175.0000	85.0000	0.0000
15:42:58	176.0000	83.0000	0.0000
15:42:58	173.0000	84.0000	0.0000
15:42:58	175.0000	84.0000	0.0000
15:42:58	167.0000	83.0000	0.0000
15:42:58	173.0000	86.0000	0.0000
15:42:58	174.0000	85.0000	0.0000
15:42:58	173.0000	85.0000	0.0000
15:42:58	172.0000	84.0000	0.0000
15:42:58	169.0000	85.0000	0.0000
15:42:58	171.0000	83.0000	0.0000
15:42:58	171.0000	87.0000	0.0000
15:42:58	176.0000	96.0000	0.0000
15:42:58	174.0000	84.0000	0.0000
15:42:58	173.0000	82.0000	0.0000
15:42:58	172.0000	83.0000	0.0000
15:42:58	173.0000	86.0000	0.0000
15:42:58	169.0000	89.0000	0.0000
15:42:58	175.0000	82.0000	0.0000
15:42:58	170.0000	85.0000	0.0000
15:42:58	176.0000	85.0000	0.0000
15:42:58	165.0000	86.0000	0.0000
15:42:58	171.0000	86.0000	0.0000
15:42:58	170.0000	85.0000	0.0000
15:42:58	174.0000	83.0000	0.0000
15:42:58	176.0000	96.0000	0.0000
15:42:58	170.0000	86.0000	0.0000
15:42:58	172.0000	83.0000	0.0000
15:42:58	171.0000	85.0000	0.0000
15:42:58	172.0000	95.0000	0.0000
15:42:58	174.0000	90.0000	0.0000
15:42:58	172.0000	87.0000	0.0000
15:42:58	172.0000	86.0000	0.0000
15:42:58	171.0000	83.0000	0.0000
15:42:58	165.0000	85.0000	0.0000
15:42:58	173.0000	85.0000	0.0000
15:42:58	169.0000	84.0000	0.0000
15:42:58	176.0000	86.0000	0.0000
15:42:58	172.0000	87.0000	0.0000
15:42:58	173.0000	85.0000	0.0000
15:42:58	172.0000	85.0000	0.0000
15:42:58	174.0000	86.0000	0.0000
15:42:58	179.0000	97.0000	0.0000
15:42:58	171.0000	84.0000	0.0000
15:42:58	170.0000	93.0000	0.0000
15:42:58	169.0000	85.0000	0.0000
15:42:58	169.0000	89.0000	0.0000
15:42:58	173.0000	86.0000	0.0000
15:42:58	171.0000	85.0000	0.0000
15:42:58	171.0000	85.0000	0.0000
15:42:58	163.0000	85.0000	0.0000
15:42:58	165.0000	83.0000	0.0000
15:42:58	173.0000	85.0000	0.0000
15:42:58	175.0000	85.0000	0.0000
15:42:58	173.0000	86.0000	0.0000
15:42:58	176.0000	104.0000	0.0000
15:42:58	173.0000	85.0000	0.0000
15:42:58	173.0000	84.0000	0.0000
15:42:58	171.0000	86.0000	0.0000
15:42:58	173.0000	95.0000	0.0000
15:42:58	171.0000	85.0000	0.0000
15:42:58	171.0000	83.0000	0.0000
15:42:58	170.0000	83.0000	0.0000
15:42:58	176.0000	86.0000	0.0000
15:42:58	166.0000	82.0000	0.0000
15:42:58	174.0000	85.0000	0.0000
15:42:58	173.0000	86.0000	0.0000
15:42:58	174.0000	86.0000	0.0000
15:42:58	173.0000	83.0000	0.0000
15:42:58	172.0000	87.0000	0.0000
15:42:58	176.0000	85.0000	0.0000
15:42:58	171.0000	86.0000	0.0000
15:42:58	177.0000	96.0000	0.0000
15:42:58	171.0000	90.0000	0.0000
15:42:58	172.0000	96.0000	0.0000
15:42:58	171.0000	75.0000	0.0000
15:42:58	159.0000	86.0000	0.0000
15:42:58	169.0000	93.0000	0.0000
15:42:58	171.0000	86.0000	0.0000
15:42:58	162.0000	75.0000	0.0000
15:42:58	173.0000	80.0000	0.0000
15:42:58	163.0000	81.0000	0.0000
15:42:58	170.0000	86.0000	0.0000
15:42:58	169.0000	83.0000	0.0000
15:42:58	167.0000	86.0000	0.0000
15:42:58	176.0000	96.0000	0.0000
15:42:58	167.0000	82.0000	0.0000
15:42:58	171.0000	81.0000	0.0000
15:42:58	169.0000	83.0000	0.0000
15:42:58	170.0000	89.0000	0.0000
15:42:58	169.0000	81.0000	0.0000
15:42:58	174.0000	87.0000	0.0000
15:42:58	170.0000	81.0000	0.0000
15:42:58	162.0000	81.0000	0.0000
15:42:58	174.0000	88.0000	0.0000
15:42:58	170.0000	85.0000	0.0000
15:42:58	171.0000	85.0000	0.0000
15:42:58	170.0000	86.0000	0.0000
15:42:58	168.0000	83.0000	0.0000
15:42:58	176.0000	560.0000	0.0000
15:42:58	177.0000	497.0000	0.0000
15:42:58	177.0000	450.0000	0.0000
15:42:58	176.0000	402.0000	0.0000
15:42:58	177.0000	373.0000	0.0000
15:42:58	176.0000	327.0000	0.0000
15:42:58	176.0000	298.0000	0.0000
15:42:58	176.0000	271.0000	0.0000
15:42:58	178.0000	243.0000	0.0000
15:42:58	165.0000	222.0000	0.0000
15:42:58	175.0000	204.0000	0.0000
15:42:58	177.0000	189.0000	0.0000
15:42:58	3712.0000	727.0000	0.0000
15:42:58	3706.0000	816.0000	0.0000
15:42:58	3703.0000	869.0000	33.0000
15:42:58	3707.0000	918.0000	57.0000
15:42:58	3707.0000	963.0000	93.0000
15:42:58	3702.0000	998.0000	110.0000
15:42:58	3711.0000	1035.0000	128.0000
15:42:58	3699.0000	1073.0000	144.0000
15:42:58	3708.0000	1099.0000	159.0000
15:42:58	3709.0000	1122.0000	174.0000
15:42:58	3703.0000	1144.0000	185.0000
15:42:58	3703.0000	1167.0000	198.0000
15:42:58	3680.0000	717.0000	0.0000
15:42:58	3687.0000	807.0000	0.0000
15:42:58	3692.0000	869.0000	16.0000
15:42:58	3686.0000	909.0000	58.0000
15:42:58	3705.0000	958.0000	80.0000
15:42:58	3703.0000	995.0000	101.0000
15:42:58	3723.0000	1036.0000	121.0000
15:42:58	3703.0000	1070.0000	140.0000
15:42:58	3703.0000	1094.0000	166.0000
15:42:58	3691.0000	1126.0000	157.0000
15:42:58	3702.0000	1143.0000	187.0000
15:42:58	3700.0000	1161.0000	192.0000
15:42:58	3705.0000	1182.0000	208.0000
15:42:58	3681.0000	1199.0000	212.0000
15:42:58	3696.0000	1210.0000	220.0000
15:42:58	3718.0000	1228.0000	229.0000
15:42:58	3706.0000	1237.0000	234.0000
15:42:58	3703.0000	1247.0000	240.0000
15:42:58	3705.0000	1253.0000	245.0000
15:42:58	3715.0000	1263.0000	250.0000
15:42:58	3707.0000	1264.0000	257.0000
15:42:58	3722.0000	1282.0000	261.0000
15:42:58	3684.0000	1268.0000	251.0000
15:42:58	3703.0000	1278.0000	275.0000
15:42:58	3703.0000	1299.0000	271.0000
15:42:58	3701.0000	1293.0000	279.0000
15:42:58	3685.0000	1300.0000	263.0000
15:42:58	3723.0000	1301.0000	273.0000
15:42:58	3701.0000	1310.0000	289.0000
15:42:58	3703.0000	1307.0000	278.0000
15:42:58	3715.0000	1309.0000	271.0000
15:42:58	3680.0000	1286.0000	286.0000
15:42:58	3718.0000	1317.0000	282.0000
15:42:58	3703.0000	1309.0000	288.0000
15:42:58	3726.0000	1312.0000	275.0000
15:42:58	3706.0000	1312.0000	288.0000
15:42:58	3700.0000	1304.0000	300.0000
15:42:58	3697.0000	1307.0000	291.0000
15:42:58	3701.0000	1302.0000	305.0000
15:42:58	3680.0000	1300.0000	294.0000
15:42:58	3702.0000	1314.0000	292.0000
15:42:58	3701.0000	1301.0000	294.0000
15:42:58	3709.0000	1317.0000	293.0000
15:42:58	3705.0000	1315.0000	293.0000
15:42:58	3703.0000	1316.0000	294.0000
15:42:58	3715.0000	1327.0000	293.0000
15:42:58	3696.0000	1319.0000	295.0000
15:42:58	3654.0000	1321.0000	294.0000
15:42:58	3698.0000	1320.0000	293.0000
15:42:58	3703.0000	1318.0000	304.0000
15:42:58	3706.0000	1323.0000	293.0000
15:42:58	3707.0000	1320.0000	297.0000
15:42:58	3729.0000	1322.0000	295.0000
15:42:58	3705.0000	1320.0000	302.0000
15:42:58	3698.0000	1314.0000	299.0000
15:42:58	3705.0000	1319.0000	297.0000
15:42:58	3706.0000	1315.0000	293.0000
15:42:58	3698.0000	1321.0000	294.0000
15:42:58	3714.0000	1325.0000	294.0000
15:42:58	3699.0000	1322.0000	297.0000
15:42:58	3703.0000	1323.0000	297.0000
15:42:58	3707.0000	1312.0000	297.0000
15:42:58	3702.0000	1324.0000	298.0000
15:42:58	3698.0000	1324.0000	298.0000
15:42:58	3701.0000	1324.0000	297.0000
15:42:58	3700.0000	1324.0000	296.0000
15:42:58	3697.0000	1325.0000	304.0000
15:42:58	3680.0000	1324.0000	300.0000
15:42:58	3697.0000	1326.0000	295.0000
15:42:58	3697.0000	1320.0000	294.0000
15:42:58	3702.0000	1325.0000	291.0000
15:42:58	3699.0000	1325.0000	293.0000
15:42:58	3705.0000	1324.0000	290.0000
15:42:58	3701.0000	1321.0000	294.0000
15:42:58	3697.0000	1324.0000	294.0000
15:42:58	3723.0000	1334.0000	291.0000
15:42:58	3696.0000	1322.0000	294.0000
15:42:58	3698.0000	1331.0000	294.0000
15:42:58	3699.0000	1324.0000	297.0000
15:42:58	3701.0000	1322.0000	304.0000
15:42:58	3703.0000	1327.0000	293.0000
15:42:58	3709.0000	1321.0000	293.0000
15:42:58	3711.0000	1324.0000	297.0000
15:42:58	3697.0000	1323.0000	301.0000
15:42:58	3674.0000	1318.0000	298.0000
15:42:58	3696.0000	1320.0000	294.0000
15:42:58	3701.0000	1323.0000	294.0000
15:42:58	3708.0000	1324.0000	295.0000
15:42:58	3713.0000	1333.0000	290.0000
15:42:58	3702.0000	1328.0000	291.0000
15:42:58	3701.0000	1324.0000	290.0000
15:42:58	3701.0000	1325.0000	291.0000
15:42:58	3725.0000	1324.0000	291.0000
15:42:58	3705.0000	1325.0000	289.0000
15:42:58	3700.0000	1328.0000	290.0000
15:42:59	3705.0000	1325.0000	293.0000
15:42:59	3711.0000	1317.0000	302.0000
15:42:59	3696.0000	1325.0000	292.0000
15:42:59	3699.0000	1325.0000	294.0000
15:42:59	3703.0000	1326.0000	294.0000
15:42:59	3696.0000	1327.0000	294.0000
15:42:59	3699.0000	1325.0000	294.0000
15:42:59	3705.0000	1329.0000	294.0000
15:42:59	3701.0000	1324.0000	292.0000
15:42:59	3705.0000	1327.0000	301.0000
15:42:59	3713.0000	1335.0000	293.0000
15:42:59	3702.0000	1324.0000	296.0000
15:42:59	3698.0000	1320.0000	298.0000
15:42:59	3697.0000	1320.0000	298.0000
15:42:59	3702.0000	1325.0000	304.0000
15:42:59	3698.0000	1322.0000	299.0000
15:42:59	3701.0000	1323.0000	298.0000
15:42:59	3698.0000	1325.0000	297.0000
15:42:59	3699.0000	1322.0000	306.0000
15:42:59	3696.0000	1319.0000	299.0000
15:42:59	3698.0000	1320.0000	295.0000
15:42:59	3705.0000	1323.0000	295.0000
15:42:59	3701.0000	1323.0000	297.0000
15:42:59	3728.0000	1328.0000	294.0000
15:42:59	3711.0000	1324.0000	295.0000
15:42:59	3702.0000	1325.0000	295.0000
15:42:59	3705.0000	1321.0000	292.0000
15:42:59	3705.0000	1324.0000	300.0000
15:42:59	3697.0000	1326.0000	294.0000
15:42:59	3703.0000	1326.0000	293.0000
15:42:59	3703.0000	1326.0000	295.0000
15:42:59	3699.0000	1325.0000	305.0000
15:42:59	3697.0000	1321.0000	299.0000
15:42:59	3701.0000	1326.0000	296.0000
15:42:59	3698.0000	1329.0000	291.0000
15:42:59	3711.0000	1329.0000	295.0000
15:42:59	3712.0000	1329.0000	291.0000
15:42:59	3702.0000	1325.0000	295.0000
15:42:59	3715.0000	1345.0000	281.0000
15:42:59	3691.0000	1326.0000	295.0000
15:42:59	3722.0000	1328.0000	293.0000
15:42:59	3702.0000	1325.0000	296.0000
15:42:59	3703.0000	1330.0000	302.0000
15:42:59	3676.0000	1325.0000	278.0000
15:42:59	3713.0000	1323.0000	304.0000
15:42:59	3697.0000	1328.0000	294.0000
15:42:59	3701.0000	1327.0000	295.0000
15:42:59	3699.0000	1323.0000	292.0000
15:42:59	3698.0000	1328.0000	294.0000
15:42:59	3702.0000	1328.0000	295.0000
15:42:59	3705.0000	1326.0000	293.0000
15:42:59	3724.0000	1328.0000	298.0000
15:42:59	3700.0000	1327.0000	295.0000
15:42:59	3713.0000	1338.0000	291.0000
15:42:59	3700.0000	1322.0000	292.0000
15:42:59	3702.0000	1323.0000	303.0000
15:42:59	3699.0000	1321.0000	297.0000
15:42:59	3698.0000	1312.0000	303.0000
15:42:59	3708.0000	1329.0000	298.0000
15:42:59	3701.0000	1319.0000	302.0000
15:42:59	3707.0000	1322.0000	303.0000
15:42:59	3711.0000	1317.0000	304.0000
15:42:59	3712.0000	1319.0000	304.0000
15:42:59	3706.0000	1317.0000	304.0000
15:42:59	3725.0000	1344.0000	294.0000
15:42:59	3696.0000	1325.0000	304.0000
15:42:59	3705.0000	1322.0000	310.0000
15:42:59	3711.0000	1326.0000	301.0000
15:42:59	3701.0000	1312.0000	309.0000
15:42:59	3697.0000	1322.0000	294.0000
15:42:59	3679.0000	1440.0000	0.0000
15:42:59	3702.0000	1433.0000	50.0000
15:42:59	3696.0000	1407.0000	89.0000
15:42:59	3703.0000	1388.0000	127.0000
15:42:59	3687.0000	1376.0000	138.0000
15:42:59	3701.0000	1356.0000	173.0000
15:42:59	3716.0000	1359.0000	191.0000
15:42:59	3707.0000	1354.0000	207.0000
15:42:59	3725.0000	1360.0000	208.0000
15:42:59	3680.0000	1353.0000	233.0000
15:42:59	3728.0000	1340.0000	240.0000
15:42:59	3690.0000	1335.0000	247.0000
15:42:59	3684.0000	1495.0000	38.0000
15:42:59	3705.0000	1474.0000	90.0000
15:42:59	3718.0000	1451.0000	128.0000
15:42:59	3709.0000	1429.0000	158.0000
15:42:59	3721.0000	1425.0000	165.0000
15:42:59	3683.0000	1396.0000	208.0000
15:42:59	3703.0000	1383.0000	214.0000
15:42:59	3703.0000	1373.0000	229.0000
15:42:59	3709.0000	1366.0000	243.0000
15:42:59	3679.0000	1354.0000	260.0000
15:42:59	3699.0000	1342.0000	266.0000
15:42:59	3696.0000	1342.0000	261.0000
15:42:59	3711.0000	1485.0000	101.0000
15:42:59	3717.0000	1459.0000	133.0000
15:42:59	3702.0000	1430.0000	165.0000
15:42:59	3714.0000	1428.0000	176.0000
15:42:59	3681.0000	1379.0000	208.0000
15:42:59	3708.0000	1385.0000	224.0000
15:42:59	3712.0000	1372.0000	231.0000
15:42:59	3699.0000	1361.0000	255.0000
15:42:59	3691.0000	1356.0000	241.0000
15:42:59	3703.0000	1353.0000	273.0000
15:42:59	3698.0000	1338.0000	271.0000
15:42:59	3739.0000	1342.0000	272.0000
15:42:59	3702.0000	1430.0000	178.0000
15:42:59	3679.0000	1413.0000	178.0000
15:42:59	3702.0000	1394.0000	220.0000
15:42:59	3698.0000	1376.0000	227.0000
15:42:59	3679.0000	1364.0000	245.0000
15:42:59	3683.0000	1368.0000	238.0000
15:42:59	3706.0000	1353.0000	256.0000
15:42:59	3723.0000	1352.0000	262.0000
15:42:59	3707.0000	1350.0000	269.0000
15:42:59	3717.0000	1363.0000	262.0000
15:42:59	3677.0000	1325.0000	275.0000
15:42:59	3719.0000	1340.0000	276.0000
15:42:59	3707.0000	1365.0000	254.0000
15:42:59	3678.0000	1358.0000	244.0000
15:42:59	3711.0000	1342.0000	272.0000
15:42:59	3699.0000	1341.0000	268.0000
15:42:59	3719.0000	1344.0000	281.0000
15:42:59	3693.0000	1342.0000	267.0000
15:42:59	3674.0000	1347.0000	286.0000
15:42:59	3703.0000	1331.0000	284.0000
15:42:59	3711.0000	1331.0000	283.0000
15:42:59	3711.0000	1329.0000	270.0000
15:42:59	3685.0000	1329.0000	291.0000
15:42:59	3719.0000	1339.0000	287.0000
15:42:59	3710.0000	1354.0000	265.0000
15:42:59	3664.0000	1351.0000	249.0000
15:42:59	3703.0000	1336.0000	277.0000
15:42:59	3702.0000	1349.0000	272.0000
15:42:59	3695.0000	1334.0000	283.0000
15:42:59	3679.0000	1338.0000	267.0000
15:42:59	3665.0000	1344.0000	283.0000
15:42:59	3702.0000	1334.0000	279.0000
15:42:59	3687.0000	1329.0000	287.0000
15:42:59	3718.0000	1331.0000	272.0000
15:42:59	3664.0000	1327.0000	291.0000
15:42:59	3723.0000	1337.0000	285.0000
15:42:59	3701.0000	1323.0000	290.0000
15:42:59	3722.0000	1327.0000	277.0000
15:42:59	3707.0000	1330.0000	290.0000
15:42:59	3706.0000	1316.0000	303.0000
15:42:59	3696.0000	1328.0000	292.0000
15:42:59	3702.0000	1319.0000	293.0000
15:42:59	3667.0000	1323.0000	292.0000
15:42:59	3700.0000	1326.0000	298.0000
15:42:59	3702.0000	1324.0000	304.0000
15:42:59	3706.0000	1320.0000	295.0000
15:42:59	3715.0000	1324.0000	278.0000
15:42:59	3674.0000	1309.0000	296.0000
15:42:59	3720.0000	1328.0000	292.0000
15:42:59	3711.0000	1325.0000	295.0000
15:42:59	3719.0000	1322.0000	286.0000
15:42:59	3701.0000	1317.0000	294.0000
15:42:59	3705.0000	1323.0000	304.0000
15:42:59	3698.0000	1324.0000	295.0000
15:42:59	3693.0000	1313.0000	304.0000
15:42:59	3678.0000	1322.0000	278.0000
15:42:59	3711.0000	1317.0000	299.0000
15:42:59	3703.0000	1316.0000	292.0000
15:42:59	3707.0000	1321.0000	295.0000
15:42:59	3677.0000	1322.0000	278.0000
15:42:59	3673.0000	1303.0000	295.0000
15:42:59	3722.0000	1326.0000	291.0000
15:42:59	3700.0000	1327.0000	301.0000
15:42:59	3715.0000	1339.0000	284.0000
15:42:59	3706.0000	1326.0000	293.0000
15:42:59	3702.0000	1325.0000	301.0000
15:42:59	3707.0000	1326.0000	294.0000
15:42:59	3699.0000	1327.0000	287.0000
15:42:59	3701.0000	1328.0000	293.0000
15:42:59	3699.0000	1327.0000	304.0000
15:42:59	3696.0000	1316.0000	294.0000
15:42:59	3702.0000	1324.0000	294.0000
15:42:59	3691.0000	1319.0000	278.0000
15:42:59	3667.0000	1305.0000	298.0000
15:42:59	3728.0000	1323.0000	293.0000
15:42:59	3709.0000	1323.0000	294.0000
15:42:59	3719.0000	1342.0000	275.0000
15:42:59	3669.0000	1319.0000	272.0000
15:42:59	3716.0000	1322.0000	292.0000
15:42:59	3702.0000	1323.0000	294.0000
15:42:59	3709.0000	1327.0000	302.0000
15:42:59	3719.0000	1323.0000	291.0000
15:42:59	3707.0000	1309.0000	301.0000
15:42:59	3698.0000	1326.0000	293.0000
15:42:59	3701.0000	1324.0000	301.0000
15:42:59	3677.0000	1321.0000	275.0000
15:42:59	3670.0000	1322.0000	288.0000
15:42:59	3706.0000	1325.0000	291.0000
15:42:59	3702.0000	1327.0000	294.0000
15:42:59	3714.0000	1326.0000	276.0000
15:42:59	3701.0000	1325.0000	293.0000
15:42:59	3715.0000	1330.0000	292.0000
15:42:59	3700.0000	1325.0000	294.0000
15:42:59	3718.0000	1325.0000	284.0000
15:42:59	3670.0000	1320.0000	278.0000
15:42:59	3698.0000	1313.0000	304.0000
15:42:59	3701.0000	1332.0000	297.0000
15:42:59	3701.0000	1324.0000	304.0000
15:42:59	3673.0000	1296.0000	297.0000
15:42:59	3701.0000	1319.0000	297.0000
15:42:59	3704.0000	1322.0000	302.0000
15:42:59	3705.0000	1325.0000	291.0000
15:42:59	3674.0000	1327.0000	269.0000
15:42:59	3718.0000	1328.0000	286.0000
15:42:59	3698.0000	1328.0000	295.0000
15:42:59	3711.0000	1325.0000	290.0000
15:42:59	3719.0000	1327.0000	274.0000
15:42:59	3702.0000	1325.0000	295.0000
15:42:59	3716.0000	1335.0000	288.0000
15:42:59	3699.0000	1326.0000	290.0000
15:42:59	3715.0000	1329.0000	277.0000
15:42:59	3671.0000	1323.0000	273.0000
15:42:59	3711.0000	1314.0000	302.0000
15:42:59	3702.0000	1325.0000	294.0000
15:42:59	3704.0000	1319.0000	304.0000
15:42:59	3675.0000	1319.0000	273.0000
15:42:59	3666.0000	1325.0000	293.0000
15:42:59	3699.0000	1324.0000	299.0000
15:42:59	3703.0000	1320.0000	295.0000
15:42:59	3728.0000	1324.0000	277.0000
15:42:59	3699.0000	1322.0000	297.0000
15:42:59	3728.0000	1335.0000	292.0000
15:42:59	3727.0000	1321.0000	297.0000
15:42:59	3721.0000	1326.0000	281.0000
15:42:59	3699.0000	1326.0000	289.0000
15:42:59	3706.0000	1328.0000	303.0000
15:42:59	3703.0000	1326.0000	291.0000
15:42:59	3698.0000	1327.0000	291.0000
15:42:59	3699.0000	1326.0000	292.0000
15:42:59	3706.0000	1326.0000	302.0000
15:42:59	3697.0000	1326.0000	301.0000
15:42:59	3692.0000	1328.0000	293.0000
15:42:59	3708.0000	1320.0000	278.0000
15:42:59	3664.0000	1305.0000	295.0000
15:42:59	3718.0000	1327.0000	293.0000
15:42:59	3706.0000	1328.0000	294.0000
15:42:59	3723.0000	1342.0000	281.0000
15:42:59	3669.0000	1321.0000	303.0000
15:42:59	3698.0000	1323.0000	297.0000
15:42:59	3702.0000	1321.0000	293.0000
15:42:59	3707.0000	1323.0000	305.0000
15:42:59	3668.0000	1324.0000	272.0000
15:42:59	3700.0000	1323.0000	304.0000
15:42:59	3698.0000	1313.0000	293.0000
15:42:59	3698.0000	1326.0000	293.0000
15:42:59	3685.0000	1325.0000	304.0000
15:42:59	3697.0000	1322.0000	290.0000
15:42:59	3725.0000	1330.0000	288.0000
15:42:59	3708.0000	1325.0000	289.0000
15:42:59	3717.0000	1335.0000	272.0000
15:42:59	3666.0000	1326.0000	275.0000
15:42:59	3721.0000	1325.0000	289.0000
15:42:59	3744.0000	1325.0000	288.0000
15:42:59	3714.0000	1328.0000	291.0000
15:42:59	3726.0000	1326.0000	289.0000
15:42:59	3708.0000	1318.0000	301.0000
15:42:59	3675.0000	1335.0000	292.0000
15:42:59	3702.0000	1325.0000	300.0000
15:42:59	3675.0000	1324.0000	272.0000
15:42:59	3721.0000	1323.0000	288.0000
15:42:59	3697.0000	1323.0000	289.0000
15:42:59	3702.0000	1324.0000	295.0000
15:42:59	3717.0000	1318.0000	275.0000
15:42:59	3725.0000	1324.0000	294.0000
15:42:59	3718.0000	1326.0000	293.0000
15:42:59	3704.0000	1319.0000	294.0000
15:42:59	3702.0000	1324.0000	293.0000
15:42:59	3707.0000	1324.0000	294.0000
15:42:59	3699.0000	1313.0000	303.0000
15:42:59	3710.0000	1322.0000	290.0000
15:42:59	3703.0000	1326.0000	293.0000
15:42:59	3713.0000	1324.0000	291.0000
15:42:59	3701.0000	1324.0000	294.0000
15:42:59	3707.0000	1323.0000	293.0000
15:42:59	3710.0000	1326.0000	291.0000
15:42:59	3712.0000	1327.0000	293.0000
15:42:59	3699.0000	1326.0000	297.0000
15:42:59	3723.0000	1333.0000	289.0000
15:42:59	3702.0000	1330.0000	293.0000
15:42:59	3703.0000	1328.0000	292.0000
15:42:59	3724.0000	1322.0000	294.0000
15:42:59	3702.0000	1324.0000	304.0000
15:42:59	3703.0000	1327.0000	294.0000
15:42:59	3707.0000	1328.0000	290.0000
15:42:59	3705.0000	1326.0000	292.0000
15:42:59	3705.0000	1326.0000	304.0000
15:42:59	3701.0000	1328.0000	296.0000
15:42:59	3709.0000	1328.0000	294.0000
15:42:59	3705.0000	1328.0000	291.0000
15:42:59	3706.0000	1328.0000	290.0000
15:42:59	3717.0000	1331.0000	293.0000
15:42:59	3703.0000	1327.0000	292.0000
15:42:59	3713.0000	1328.0000	292.0000
15:42:59	3703.0000	1330.0000	291.0000
15:42:59	3716.0000	1330.0000	290.0000
15:42:59	3702.0000	1326.0000	290.0000
15:42:59	3729.0000	1328.0000	290.0000
15:42:59	3702.0000	1331.0000	293.0000
15:42:59	3696.0000	1316.0000	301.0000
15:42:59	3703.0000	1324.0000	289.0000
15:42:59	3705.0000	1325.0000	289.0000
15:42:59	3727.0000	1325.0000	292.0000
15:42:59	3699.0000	1321.0000	294.0000
15:42:59	3702.0000	1327.0000	290.0000
15:42:59	3701.0000	1328.0000	291.0000
15:42:59	3697.0000	1324.0000	291.0000
15:42:59	3728.0000	1330.0000	291.0000
15:42:59	3715.0000	1339.0000	291.0000
15:42:59	3705.0000	1324.0000	290.0000
15:42:59	3697.0000	1328.0000	289.0000
15:42:59	3701.0000	1326.0000	291.0000
15:42:59	3701.0000	1331.0000	300.0000
15:42:59	3702.0000	1329.0000	289.0000
15:42:59	3701.0000	1326.0000	292.0000
15:42:59	3708.0000	1325.0000	290.0000
15:42:59	3703.0000	1325.0000	302.0000
15:42:59	3696.0000	1327.0000	289.0000
15:42:59	3701.0000	1326.0000	289.0000
15:42:59	3701.0000	1327.0000	289.0000
15:42:59	3709.0000	1326.0000	294.0000
15:42:59	3714.0000	1328.0000	285.0000
15:42:59	3699.0000	1327.0000	288.0000
15:42:59	3698.0000	1323.0000	291.0000
15:42:59	3701.0000	1327.0000	289.0000
15:42:59	3719.0000	1328.0000	289.0000
15:42:59	3710.0000	1324.0000	288.0000
15:42:59	3728.0000	1327.0000	293.0000
15:42:59	3705.0000	1326.0000	290.0000
15:42:59	3703.0000	1318.0000	302.0000
15:42:59	3697.0000	1333.0000	291.0000
15:42:59	3703.0000	1329.0000	292.0000
15:42:59	3710.0000	1327.0000	290.0000
15:42:59	3698.0000	1328.0000	291.0000
15:42:59	3705.0000	1329.0000	292.0000
15:42:59	3705.0000	1328.0000	293.0000
15:42:59	3707.0000	1326.0000	290.0000
15:42:59	3696.0000	1335.0000	291.0000
15:42:59	3720.0000	1341.0000	289.0000
15:42:59	3702.0000	1327.0000	290.0000
15:42:59	3702.0000	1326.0000	291.0000
15:42:59	3703.0000	1325.0000	295.0000
15:42:59	3703.0000	1312.0000	302.0000
15:42:59	3713.0000	1329.0000	293.0000
15:42:59	3707.0000	1328.0000	291.0000
15:42:59	3709.0000	1326.0000	293.0000
15:42:59	3699.0000	1327.0000	290.0000
15:42:59	3708.0000	1317.0000	295.0000
15:42:59	3703.0000	1326.0000	295.0000
15:42:59	3717.0000	1324.0000	293.0000
15:42:59	3708.0000	1324.0000	296.0000
15:42:59	3718.0000	1331.0000	291.0000
15:42:59	3707.0000	1327.0000	294.0000
15:42:59	3717.0000	1343.0000	277.0000
15:42:59	3668.0000	1320.0000	273.0000
15:42:59	3696.0000	1327.0000	297.0000
15:42:59	3699.0000	1326.0000	295.0000
15:42:59	3705.0000	1329.0000	303.0000
15:42:59	3675.0000	1322.0000	278.0000
15:42:59	3710.0000	1327.0000	304.0000
15:42:59	3702.0000	1332.0000	295.0000
15:42:59	3702.0000	1324.0000	291.0000
15:42:59	3699.0000	1328.0000	299.0000
15:42:59	3700.0000	1322.0000	293.0000
15:42:59	3719.0000	1328.0000	294.0000
15:42:59	3700.0000	1329.0000	293.0000
15:42:59	3702.0000	1324.0000	295.0000
15:42:59	3705.0000	1321.0000	294.0000
15:42:59	3731.0000	1325.0000	294.0000
15:42:59	3703.0000	1324.0000	292.0000
15:42:59	3699.0000	1327.0000	290.0000
15:42:59	3710.0000	1324.0000	294.0000
15:42:59	3701.0000	1318.0000	302.0000
15:42:59	3706.0000	1326.0000	291.0000
15:42:59	3703.0000	1324.0000	295.0000
15:42:59	3703.0000	1325.0000	293.0000
15:42:59	3703.0000	1325.0000	298.0000
15:42:59	3723.0000	1320.0000	303.0000
15:42:59	3702.0000	1319.0000	301.0000
15:42:59	3712.0000	1321.0000	298.0000
15:42:59	3711.0000	1323.0000	303.0000
15:42:59	3710.0000	1322.0000	314.0000
15:42:59	3713.0000	1314.0000	304.0000
15:42:59	3713.0000	1318.0000	304.0000
15:42:59	3711.0000	1319.0000	304.0000
15:42:59	3709.0000	1319.0000	304.0000
15:42:59	3669.0000	1494.0000	0.0000
15:42:59	3717.0000	1481.0000	45.0000
15:42:59	3701.0000	1441.0000	87.0000
15:42:59	3713.0000	1428.0000	133.0000
15:42:59	3679.0000	1410.0000	139.0000
15:42:59	3703.0000	1384.0000	185.0000
15:42:59	3699.0000	1390.0000	195.0000
15:42:59	3733.0000	1375.0000	222.0000
15:42:59	3683.0000	1360.0000	209.0000
15:42:59	3734.0000	1353.0000	237.0000
15:42:59	3701.0000	1350.0000	246.0000
15:42:59	3710.0000	1346.0000	255.0000
15:42:59	3681.0000	1535.0000	19.0000
15:42:59	3701.0000	1494.0000	69.0000
15:42:59	3697.0000	1472.0000	105.0000
15:42:59	3711.0000	1436.0000	144.0000
15:42:59	3673.0000	1423.0000	147.0000
15:42:59	3696.0000	1403.0000	185.0000
15:42:59	3702.0000	1390.0000	203.0000
15:42:59	3700.0000	1382.0000	222.0000
15:42:59	3717.0000	1379.0000	215.0000
15:42:59	3671.0000	1360.0000	241.0000
15:42:59	3722.0000	1365.0000	245.0000
15:42:59	3717.0000	1342.0000	256.0000
15:42:59	3718.0000	1524.0000	38.0000
15:42:59	3671.0000	1487.0000	98.0000
15:42:59	3722.0000	1473.0000	131.0000
15:42:59	3703.0000	1430.0000	160.0000
15:42:59	3751.0000	1411.0000	175.0000
15:42:59	3673.0000	1401.0000	204.0000
15:42:59	3697.0000	1385.0000	226.0000
15:42:59	3699.0000	1376.0000	232.0000
15:42:59	3701.0000	1355.0000	252.0000
15:42:59	3711.0000	1356.0000	235.0000
15:42:59	3709.0000	1350.0000	259.0000
15:42:59	3700.0000	1347.0000	273.0000
15:42:59	3709.0000	1487.0000	107.0000
15:42:59	3718.0000	1460.0000	138.0000
15:42:59	3699.0000	1430.0000	170.0000
15:42:59	3728.0000	1426.0000	178.0000
15:42:59	3673.0000	1374.0000	210.0000
15:42:59	3701.0000	1387.0000	234.0000
15:42:59	3713.0000	1375.0000	239.0000
15:42:59	3711.0000	1356.0000	254.0000
15:42:59	3673.0000	1361.0000	240.0000
15:42:59	3699.0000	1352.0000	272.0000
15:42:59	3707.0000	1343.0000	270.0000
15:42:59	3699.0000	1345.0000	272.0000
15:42:59	3707.0000	1501.0000	85.0000
15:42:59	3723.0000	1471.0000	114.0000
15:42:59	3671.0000	1446.0000	157.0000
15:42:59	3700.0000	1427.0000	187.0000
15:42:59	3718.0000	1405.0000	203.0000
15:42:59	3703.0000	1385.0000	225.0000
15:42:59	3677.0000	1387.0000	211.0000
15:42:59	3700.0000	1372.0000	251.0000
15:42:59	3698.0000	1364.0000	249.0000
15:42:59	3707.0000	1355.0000	256.0000
15:42:59	3696.0000	1351.0000	249.0000
15:42:59	3725.0000	1351.0000	266.0000
15:42:59	3722.0000	1350.0000	267.0000
15:42:59	3703.0000	1340.0000	273.0000
15:42:59	3717.0000	1365.0000	260.0000
15:42:59	3669.0000	1338.0000	261.0000
15:42:59	3701.0000	1338.0000	281.0000
15:42:59	3706.0000	1339.0000	283.0000
15:42:59	3706.0000	1340.0000	291.0000
15:42:59	3691.0000	1330.0000	267.0000
15:42:59	3712.0000	1331.0000	294.0000
15:42:59	3697.0000	1325.0000	289.0000
15:42:59	3664.0000	1328.0000	290.0000
15:42:59	3726.0000	1368.0000	256.0000
15:42:59	3698.0000	1349.0000	253.0000
15:42:59	3701.0000	1352.0000	258.0000
15:42:59	3685.0000	1344.0000	254.0000
15:42:59	3683.0000	1317.0000	272.0000
15:42:59	3719.0000	1343.0000	272.0000
15:42:59	3709.0000	1343.0000	278.0000
15:42:59	3680.0000	1360.0000	267.0000
15:42:59	3687.0000	1333.0000	263.0000
15:42:59	3717.0000	1337.0000	280.0000
15:42:59	3704.0000	1332.0000	284.0000
15:42:59	3709.0000	1337.0000	292.0000
15:42:59	3676.0000	1335.0000	268.0000
15:42:59	3707.0000	1328.0000	295.0000
15:42:59	3697.0000	1327.0000	277.0000
15:42:59	3708.0000	1333.0000	298.0000
15:42:59	3677.0000	1327.0000	272.0000
15:42:59	3664.0000	1310.0000	289.0000
15:42:59	3702.0000	1330.0000	287.0000
15:42:59	3703.0000	1326.0000	289.0000
15:42:59	3719.0000	1332.0000	272.0000
15:42:59	3706.0000	1327.0000	290.0000
15:42:59	3725.0000	1335.0000	288.0000
15:42:59	3701.0000	1356.0000	267.0000
15:42:59	3687.0000	1346.0000	247.0000
15:42:59	3706.0000	1334.0000	278.0000
15:42:59	3699.0000	1335.0000	275.0000
15:42:59	3705.0000	1332.0000	288.0000
15:42:59	3679.0000	1337.0000	279.0000
15:42:59	3699.0000	1332.0000	282.0000
15:42:59	3723.0000	1332.0000	284.0000
15:42:59	3708.0000	1333.0000	288.0000
15:42:59	3723.0000	1352.0000	272.0000
15:42:59	3689.0000	1328.0000	272.0000
15:42:59	3721.0000	1333.0000	289.0000
15:42:59	3696.0000	1328.0000	294.0000
15:42:59	3703.0000	1329.0000	304.0000
15:42:59	3675.0000	1328.0000	291.0000
15:42:59	3712.0000	1321.0000	301.0000
15:42:59	3700.0000	1318.0000	295.0000
15:42:59	3703.0000	1325.0000	295.0000
15:42:59	3701.0000	1329.0000	290.0000
15:42:59	3709.0000	1325.0000	291.0000
15:42:59	3715.0000	1326.0000	290.0000
15:42:59	3709.0000	1326.0000	297.0000
15:42:59	3708.0000	1335.0000	282.0000
15:42:59	3680.0000	1322.0000	303.0000
15:42:59	3724.0000	1326.0000	292.0000
15:42:59	3698.0000	1326.0000	293.0000
15:42:59	3712.0000	1326.0000	289.0000
15:42:59	3677.0000	1321.0000	273.0000
15:42:59	3700.0000	1313.0000	304.0000
15:42:59	3706.0000	1336.0000	294.0000
15:42:59	3671.0000	1326.0000	304.0000
15:42:59	3681.0000	1322.0000	272.0000
15:42:59	3723.0000	1325.0000	291.0000
15:42:59	3702.0000	1326.0000	297.0000
15:42:59	3709.0000	1323.0000	294.0000
15:42:59	3717.0000	1325.0000	271.0000
15:42:59	3702.0000	1323.0000	293.0000
15:42:59	3729.0000	1336.0000	288.0000
15:42:59	3711.0000	1323.0000	293.0000
15:42:59	3729.0000	1324.0000	282.0000
15:42:59	3706.0000	1327.0000	291.0000
15:42:59	3705.0000	1314.0000	303.0000
15:42:59	3722.0000	1322.0000	291.0000
15:42:59	3728.0000	1324.0000	290.0000
15:42:59	3664.0000	1322.0000	294.0000
15:42:59	3696.0000	1327.0000	293.0000
15:42:59	3709.0000	1324.0000	301.0000
15:42:59	3727.0000	1326.0000	293.0000
15:42:59	3727.0000	1321.0000	278.0000
15:42:59	3678.0000	1326.0000	298.0000
15:42:59	3719.0000	1334.0000	291.0000
15:42:59	3703.0000	1324.0000	294.0000
15:42:59	3719.0000	1328.0000	278.0000
15:42:59	3676.0000	1321.0000	273.0000
15:42:59	3697.0000	1323.0000	304.0000
15:42:59	3706.0000	1332.0000	295.0000
15:42:59	3702.0000	1312.0000	302.0000
15:42:59	3666.0000	1327.0000	275.0000
15:42:59	3702.0000	1323.0000	295.0000
15:42:59	3698.0000	1320.0000	293.0000
15:42:59	3705.0000	1324.0000	293.0000
15:42:59	3685.0000	1325.0000	276.0000
15:42:59	3709.0000	1322.0000	294.0000
15:42:59	3719.0000	1334.0000	291.0000
15:42:59	3701.0000	1324.0000	293.0000
15:42:59	3722.0000	1321.0000	283.0000
15:42:59	3668.0000	1320.0000	276.0000
15:42:59	3705.0000	1322.0000	290.0000
15:42:59	3701.0000	1328.0000	293.0000
15:42:59	3707.0000	1321.0000	301.0000
15:42:59	3671.0000	1328.0000	294.0000
15:42:59	3699.0000	1326.0000	302.0000
15:42:59	3699.0000	1316.0000	302.0000
15:42:59	3705.0000	1326.0000	301.0000
15:42:59	3681.0000	1324.0000	277.0000
15:42:59	3666.0000	1323.0000	293.0000
15:42:59	3725.0000	1324.0000	291.0000
15:42:59	3707.0000	1325.0000	295.0000
15:42:59	3712.0000	1346.0000	275.0000
15:42:59	3727.0000	1325.0000	291.0000
15:42:59	3741.0000	1324.0000	292.0000
15:42:59	3703.0000	1323.0000	293.0000
15:42:59	3709.0000	1326.0000	295.0000
15:42:59	3697.0000	1325.0000	291.0000
15:42:59	3708.0000	1316.0000	304.0000
15:42:59	3697.0000	1321.0000	294.0000
15:42:59	3702.0000	1325.0000	304.0000
15:42:59	3681.0000	1327.0000	274.0000
15:42:59	3671.0000	1331.0000	289.0000
15:42:59	3712.0000	1323.0000	287.0000
15:42:59	3698.0000	1329.0000	289.0000
15:42:59	3722.0000	1328.0000	272.0000
15:42:59	3674.0000	1326.0000	272.0000
15:42:59	3719.0000	1334.0000	290.0000
15:42:59	3699.0000	1329.0000	293.0000
15:42:59	3728.0000	1326.0000	282.0000
15:42:59	3667.0000	1326.0000	274.0000
15:42:59	3706.0000	1314.0000	304.0000
15:42:59	3699.0000	1328.0000	298.0000
15:42:59	3699.0000	1318.0000	301.0000
15:42:59	3664.0000	1302.0000	293.0000
15:42:59	3700.0000	1326.0000	292.0000
15:42:59	3703.0000	1325.0000	293.0000
15:42:59	3707.0000	1319.0000	294.0000
15:42:59	3717.0000	1329.0000	277.0000
15:42:59	3668.0000	1327.0000	293.0000
15:42:59	3722.0000	1338.0000	290.0000
15:42:59	3696.0000	1327.0000	292.0000
15:42:59	3726.0000	1323.0000	283.0000
15:42:59	3705.0000	1324.0000	291.0000
15:42:59	3703.0000	1325.0000	303.0000
15:42:59	3701.0000	1323.0000	294.0000
15:42:59	3707.0000	1324.0000	296.0000
15:42:59	3709.0000	1326.0000	293.0000
15:42:59	3708.0000	1326.0000	293.0000
15:42:59	3696.0000	1318.0000	291.0000
15:42:59	3707.0000	1326.0000	292.0000
15:42:59	3703.0000	1325.0000	293.0000
15:42:59	3710.0000	1323.0000	292.0000
15:42:59	3752.0000	1328.0000	287.0000
15:42:59	3707.0000	1323.0000	292.0000
15:42:59	3698.0000	1325.0000	289.0000
15:42:59	3703.0000	1320.0000	290.0000
15:42:59	3713.0000	1326.0000	292.0000
15:42:59	3696.0000	1325.0000	293.0000
15:42:59	3677.0000	1325.0000	292.0000
15:42:59	3712.0000	1326.0000	291.0000
15:42:59	3711.0000	1314.0000	301.0000
15:42:59	3696.0000	1324.0000	290.0000
15:42:59	3705.0000	1322.0000	291.0000
15:42:59	3707.0000	1327.0000	291.0000
15:42:59	3701.0000	1326.0000	293.0000
15:42:59	3696.0000	1323.0000	292.0000
15:42:59	3707.0000	1327.0000	290.0000
15:42:59	3695.0000	1325.0000	291.0000
15:42:59	3707.0000	1325.0000	292.0000
15:42:59	3725.0000	1336.0000	288.0000
15:42:59	3707.0000	1325.0000	289.0000
15:42:59	3701.0000	1327.0000	289.0000
15:42:59	3707.0000	1328.0000	289.0000
15:42:59	3703.0000	1329.0000	302.0000
15:42:59	3702.0000	1332.0000	291.0000
15:42:59	3700.0000	1327.0000	292.0000
15:42:59	3703.0000	1320.0000	291.0000
15:42:59	3705.0000	1328.0000	304.0000
15:42:59	3698.0000	1327.0000	292.0000
15:42:59	3706.0000	1324.0000	295.0000
15:42:59	3702.0000	1327.0000	295.0000
15:42:59	3706.0000	1325.0000	293.0000
15:42:59	3717.0000	1325.0000	293.0000
15:42:59	3705.0000	1323.0000	291.0000
15:42:59	3705.0000	1326.0000	301.0000
15:42:59	3731.0000	1330.0000	291.0000
15:42:59	3715.0000	1330.0000	294.0000
15:42:59	3711.0000	1327.0000	291.0000
15:42:59	3706.0000	1328.0000	290.0000
15:42:59	3711.0000	1328.0000	291.0000
15:42:59	3700.0000	1316.0000	300.0000
15:42:59	3664.0000	1328.0000	288.0000
15:42:59	3700.0000	1326.0000	289.0000
15:42:59	3707.0000	1327.0000	290.0000
15:42:59	3701.0000	1327.0000	288.0000
15:42:59	3706.0000	1326.0000	288.0000
15:42:59	3703.0000	1327.0000	288.0000
15:42:59	3698.0000	1327.0000	288.0000
15:42:59	3727.0000	1327.0000	288.0000
15:42:59	3715.0000	1338.0000	284.0000
15:42:59	3696.0000	1329.0000	286.0000
15:42:59	3696.0000	1326.0000	288.0000
15:42:59	3708.0000	1327.0000	288.0000
15:42:59	3697.0000	1328.0000	299.0000
15:42:59	3708.0000	1328.0000	289.0000
15:42:59	3701.0000	1328.0000	287.0000
15:42:59	3701.0000	1325.0000	288.0000
15:42:59	3708.0000	1328.0000	299.0000
15:42:59	3697.0000	1326.0000	289.0000
15:42:59	3699.0000	1327.0000	290.0000
15:42:59	3699.0000	1326.0000	289.0000
15:42:59	3711.0000	1327.0000	289.0000
15:42:59	3717.0000	1327.0000	290.0000
15:42:59	3709.0000	1327.0000	290.0000
15:42:59	3701.0000	1326.0000	288.0000
15:42:59	3700.0000	1324.0000	290.0000
15:42:59	3719.0000	1327.0000	291.0000
15:42:59	3702.0000	1324.0000	293.0000
15:42:59	3704.0000	1324.0000	291.0000
15:42:59	3699.0000	1324.0000	292.0000
15:42:59	3703.0000	1324.0000	302.0000
15:42:59	3699.0000	1335.0000	294.0000
15:42:59	3699.0000	1326.0000	294.0000
15:42:59	3709.0000	1322.0000	291.0000
15:42:59	3698.0000	1325.0000	295.0000
15:42:59	3723.0000	1326.0000	300.0000
15:42:59	3709.0000	1324.0000	291.0000
15:42:59	3703.0000	1322.0000	293.0000
15:42:59	3707.0000	1323.0000	291.0000
15:42:59	3719.0000	1326.0000	294.0000
15:42:59	3706.0000	1322.0000	293.0000
15:42:59	3703.0000	1324.0000	300.0000
15:42:59	3671.0000	1324.0000	275.0000
15:42:59	3706.0000	1311.0000	303.0000
15:42:59	3698.0000	1333.0000	292.0000
15:42:59	3703.0000	1327.0000	301.0000
15:42:59	3709.0000	1321.0000	273.0000
15:42:59	3664.0000	1332.0000	290.0000
15:42:59	3701.0000	1326.0000	294.0000
15:42:59	3712.0000	1325.0000	291.0000
15:42:59	3715.0000	1323.0000	275.0000
15:42:59	3669.0000	1298.0000	289.0000
15:42:59	3718.0000	1340.0000	286.0000
15:42:59	3707.0000	1326.0000	287.0000
15:42:59	3719.0000	1332.0000	276.0000
15:42:59	3673.0000	1324.0000	274.0000
15:42:59	3723.0000	1323.0000	302.0000
15:42:59	3699.0000	1318.0000	293.0000
15:42:59	3680.0000	1529.0000	36.0000
15:42:59	3703.0000	1480.0000	106.0000
15:42:59	3697.0000	1467.0000	131.0000
15:42:59	3701.0000	1432.0000	170.0000
15:42:59	3679.0000	1417.0000	170.0000
15:42:59	3719.0000	1400.0000	206.0000
15:42:59	3697.0000	1383.0000	215.0000
15:42:59	3699.0000	1374.0000	237.0000
15:42:59	3712.0000	1369.0000	229.0000
15:42:59	3670.0000	1333.0000	252.0000
15:42:59	3713.0000	1361.0000	254.0000
15:42:59	3701.0000	1349.0000	265.0000
15:42:59	3674.0000	1520.0000	41.0000
15:42:59	3703.0000	1485.0000	100.0000
15:42:59	3699.0000	1456.0000	133.0000
15:42:59	3701.0000	1434.0000	165.0000
15:42:59	3709.0000	1417.0000	172.0000
15:42:59	3727.0000	1404.0000	206.0000
15:42:59	3715.0000	1390.0000	220.0000
15:42:59	3705.0000	1376.0000	236.0000
15:42:59	3715.0000	1376.0000	232.0000
15:42:59	3678.0000	1333.0000	254.0000
15:42:59	3709.0000	1353.0000	257.0000
15:42:59	3701.0000	1347.0000	267.0000
15:42:59	3712.0000	1524.0000	43.0000
15:42:59	3728.0000	1485.0000	100.0000
15:42:59	3717.0000	1465.0000	135.0000
15:42:59	3703.0000	1431.0000	166.0000
15:42:59	3718.0000	1411.0000	177.0000
15:42:59	3671.0000	1399.0000	204.0000
15:42:59	3697.0000	1388.0000	220.0000
15:42:59	3704.0000	1375.0000	236.0000
15:42:59	3699.0000	1364.0000	251.0000
15:42:59	3666.0000	1365.0000	240.0000
15:42:59	3703.0000	1353.0000	263.0000
15:42:59	3703.0000	1339.0000	265.0000
15:42:59	3677.0000	1471.0000	109.0000
15:42:59	3718.0000	1460.0000	137.0000
15:42:59	3707.0000	1434.0000	171.0000
15:42:59	3717.0000	1414.0000	192.0000
15:42:59	3675.0000	1406.0000	221.0000
15:42:59	3701.0000	1371.0000	231.0000
15:42:59	3703.0000	1379.0000	238.0000
15:42:59	3706.0000	1360.0000	256.0000
15:42:59	3668.0000	1352.0000	238.0000
15:42:59	3686.0000	1349.0000	258.0000
15:42:59	3703.0000	1350.0000	265.0000
15:42:59	3719.0000	1345.0000	264.0000
15:42:59	3701.0000	1425.0000	176.0000
15:42:59	3714.0000	1427.0000	182.0000
15:42:59	3669.0000	1370.0000	213.0000
15:42:59	3722.0000	1384.0000	228.0000
15:42:59	3698.0000	1367.0000	240.0000
